timestamp_local,timestamp_epoch_s,ecg_uV
2026-09-13 19:49:59.170,1789339799.1702607,-21
2026-09-13 19:49:59.177,1789339799.177953,-21
2026-09-13 19:49:59.185,1789339799.1856453,-16
2026-09-13 19:49:59.193,1789339799.1933377,-19
2026-09-13 19:49:59.201,1789339799.20103,-24
2026-09-13 19:49:59.208,1789339799.208722,-16
2026-09-13 19:49:59.216,1789339799.2164145,-12
2026-09-13 19:49:59.224,1789339799.2241068,-14
2026-09-13 19:49:59.231,1789339799.2317991,-16
2026-09-13 19:49:59.239,1789339799.2394915,-12
2026-09-13 19:49:59.247,1789339799.2471838,-12
2026-09-13 19:49:59.254,1789339799.2548761,-12
2026-09-13 19:49:59.262,1789339799.2625685,-9
2026-09-13 19:49:59.270,1789339799.2702606,-9
2026-09-13 19:49:59.277,1789339799.277953,-12
2026-09-13 19:49:59.285,1789339799.2856452,-7
2026-09-13 19:49:59.293,1789339799.2933376,-2
2026-09-13 19:49:59.301,1789339799.30103,-2
2026-09-13 19:49:59.308,1789339799.3087223,-4
2026-09-13 19:49:59.316,1789339799.3164146,-7
2026-09-13 19:49:59.324,1789339799.324107,-2
2026-09-13 19:49:59.331,1789339799.331799,-2
2026-09-13 19:49:59.339,1789339799.3394914,-4
2026-09-13 19:49:59.347,1789339799.3471837,-2
2026-09-13 19:49:59.354,1789339799.354876,-2
2026-09-13 19:49:59.362,1789339799.3625684,-4
2026-09-13 19:49:59.370,1789339799.3702607,0
2026-09-13 19:49:59.377,1789339799.377953,4
2026-09-13 19:49:59.385,1789339799.3856454,0
2026-09-13 19:49:59.393,1789339799.3933375,-12
2026-09-13 19:49:59.401,1789339799.4010298,-14
2026-09-13 19:49:59.408,1789339799.4087222,-7
2026-09-13 19:49:59.416,1789339799.4164145,-2
2026-09-13 19:49:59.424,1789339799.4241068,2
2026-09-13 19:49:59.431,1789339799.4317992,24
2026-09-13 19:49:59.439,1789339799.4394915,41
2026-09-13 19:49:59.447,1789339799.4471838,36
2026-09-13 19:49:59.454,1789339799.454876,26
2026-09-13 19:49:59.462,1789339799.4625683,29
2026-09-13 19:49:59.470,1789339799.4702606,24
2026-09-13 19:49:59.477,1789339799.477953,4
2026-09-13 19:49:59.485,1789339799.4856453,-14
2026-09-13 19:49:59.493,1789339799.4933376,-14
2026-09-13 19:49:59.501,1789339799.50103,-7
2026-09-13 19:49:59.508,1789339799.5087223,-12
2026-09-13 19:49:59.516,1789339799.5164144,-21
2026-09-13 19:49:59.524,1789339799.5241067,-21
2026-09-13 19:49:59.531,1789339799.531799,-19
2026-09-13 19:49:59.539,1789339799.5394914,-26
2026-09-13 19:49:59.547,1789339799.5471838,-36
2026-09-13 19:49:59.554,1789339799.554876,-4
2026-09-13 19:49:59.562,1789339799.5625684,198
2026-09-13 19:49:59.570,1789339799.5702608,623
2026-09-13 19:49:59.577,1789339799.5779529,1081
2026-09-13 19:49:59.585,1789339799.5856452,1183
2026-09-13 19:49:59.593,1789339799.5933375,606
2026-09-13 19:49:59.601,1789339799.6010299,-181
2026-09-13 19:49:59.608,1789339799.6087222,-324
2026-09-13 19:49:59.616,1789339799.6164145,-92
2026-09-13 19:49:59.624,1789339799.624107,-128
2026-09-13 19:49:59.631,1789339799.6317992,-210
2026-09-13 19:49:59.639,1789339799.6394913,-140
2026-09-13 19:49:59.647,1789339799.6471837,-126
2026-09-13 19:49:59.654,1789339799.654876,-157
2026-09-13 19:49:59.662,1789339799.6625683,-130
2026-09-13 19:49:59.670,1789339799.6702607,-106
2026-09-13 19:49:59.677,1789339799.677953,-116
2026-09-13 19:49:59.685,1789339799.6856453,-111
2026-09-13 19:49:59.693,1789339799.6933377,-94
2026-09-13 19:49:59.701,1789339799.70103,-89
2026-09-13 19:49:59.708,1789339799.708722,-80
2026-09-13 19:49:59.716,1789339799.7164145,-72
2026-09-13 19:49:59.724,1789339799.7241068,-67
2026-09-13 19:49:59.731,1789339799.7312577,-58
2026-09-13 19:49:59.738,1789339799.73895,-41
2026-09-13 19:49:59.746,1789339799.7466424,-36
2026-09-13 19:49:59.754,1789339799.7543347,-26
2026-09-13 19:49:59.762,1789339799.762027,-9
2026-09-13 19:49:59.769,1789339799.7697191,4
2026-09-13 19:49:59.777,1789339799.7774115,21
2026-09-13 19:49:59.785,1789339799.7851038,41
2026-09-13 19:49:59.792,1789339799.7927961,65
2026-09-13 19:49:59.800,1789339799.8004885,94
2026-09-13 19:49:59.808,1789339799.8081808,123
2026-09-13 19:49:59.815,1789339799.8158731,150
2026-09-13 19:49:59.823,1789339799.8235655,164
2026-09-13 19:49:59.831,1789339799.8312576,174
2026-09-13 19:49:59.838,1789339799.83895,174
2026-09-13 19:49:59.846,1789339799.8466423,157
2026-09-13 19:49:59.854,1789339799.8543346,123
2026-09-13 19:49:59.862,1789339799.862027,77
2026-09-13 19:49:59.869,1789339799.8697193,21
2026-09-13 19:49:59.877,1789339799.8774116,-29
2026-09-13 19:49:59.885,1789339799.885104,-67
2026-09-13 19:49:59.892,1789339799.892796,-99
2026-09-13 19:49:59.900,1789339799.9004884,-118
2026-09-13 19:49:59.908,1789339799.9081807,-116
2026-09-13 19:49:59.915,1789339799.915873,-116
2026-09-13 19:49:59.923,1789339799.9235654,-121
2026-09-13 19:49:59.931,1789339799.9312577,-118
2026-09-13 19:49:59.938,1789339799.93895,-111
2026-09-13 19:49:59.946,1789339799.9466424,-101
2026-09-13 19:49:59.954,1789339799.9543345,-99
2026-09-13 19:49:59.962,1789339799.9620268,-92
2026-09-13 19:49:59.969,1789339799.9697192,-82
2026-09-13 19:49:59.977,1789339799.9774115,-80
2026-09-13 19:49:59.985,1789339799.9851038,-80
2026-09-13 19:49:59.992,1789339799.9927962,-70
2026-09-13 19:50:00.000,1789339800.0004885,-67
2026-09-13 19:50:00.008,1789339800.0081809,-70
2026-09-13 19:50:00.015,1789339800.015873,-65
2026-09-13 19:50:00.023,1789339800.0235653,-55
2026-09-13 19:50:00.031,1789339800.0312576,-58
2026-09-13 19:50:00.038,1789339800.03895,-63
2026-09-13 19:50:00.046,1789339800.0466423,-55
2026-09-13 19:50:00.054,1789339800.0543346,-53
2026-09-13 19:50:00.062,1789339800.062027,-55
2026-09-13 19:50:00.069,1789339800.0697193,-46
2026-09-13 19:50:00.077,1789339800.0774114,-41
2026-09-13 19:50:00.085,1789339800.0851038,-43
2026-09-13 19:50:00.092,1789339800.092796,-41
2026-09-13 19:50:00.100,1789339800.1004884,-31
2026-09-13 19:50:00.108,1789339800.1081808,-33
2026-09-13 19:50:00.115,1789339800.115873,-38
2026-09-13 19:50:00.123,1789339800.1235654,-31
2026-09-13 19:50:00.131,1789339800.1312578,-24
2026-09-13 19:50:00.138,1789339800.1389499,-24
2026-09-13 19:50:00.146,1789339800.1466422,-24
2026-09-13 19:50:00.154,1789339800.1543345,-24
2026-09-13 19:50:00.162,1789339800.162027,-24
2026-09-13 19:50:00.169,1789339800.1697192,-19
2026-09-13 19:50:00.177,1789339800.1774116,-16
2026-09-13 19:50:00.185,1789339800.185104,-14
2026-09-13 19:50:00.192,1789339800.1927962,-12
2026-09-13 19:50:00.200,1789339800.2004883,-9
2026-09-13 19:50:00.208,1789339800.2081807,-9
2026-09-13 19:50:00.215,1789339800.215873,-9
2026-09-13 19:50:00.223,1789339800.2235653,-7
2026-09-13 19:50:00.231,1789339800.2312577,-4
2026-09-13 19:50:00.238,1789339800.23895,-2
2026-09-13 19:50:00.246,1789339800.2466424,0
2026-09-13 19:50:00.254,1789339800.2543347,-4
2026-09-13 19:50:00.262,1789339800.262027,-4
2026-09-13 19:50:00.269,1789339800.2697191,4
2026-09-13 19:50:00.277,1789339800.2774115,9
2026-09-13 19:50:00.285,1789339800.2851038,4
2026-09-13 19:50:00.292,1789339800.2922447,4
2026-09-13 19:50:00.299,1789339800.299937,9
2026-09-13 19:50:00.307,1789339800.3076293,12
2026-09-13 19:50:00.315,1789339800.3153217,12
2026-09-13 19:50:00.323,1789339800.323014,12
2026-09-13 19:50:00.330,1789339800.3307061,16
2026-09-13 19:50:00.338,1789339800.3383985,16
2026-09-13 19:50:00.346,1789339800.3460908,16
2026-09-13 19:50:00.353,1789339800.3537831,21
2026-09-13 19:50:00.361,1789339800.3614755,26
2026-09-13 19:50:00.369,1789339800.3691678,26
2026-09-13 19:50:00.376,1789339800.3768601,26
2026-09-13 19:50:00.384,1789339800.3845525,26
2026-09-13 19:50:00.392,1789339800.3922446,21
2026-09-13 19:50:00.399,1789339800.399937,14
2026-09-13 19:50:00.407,1789339800.4076293,16
2026-09-13 19:50:00.415,1789339800.4153216,29
2026-09-13 19:50:00.423,1789339800.423014,38
2026-09-13 19:50:00.430,1789339800.4307063,50
2026-09-13 19:50:00.438,1789339800.4383986,77
2026-09-13 19:50:00.446,1789339800.446091,89
2026-09-13 19:50:00.453,1789339800.453783,77
2026-09-13 19:50:00.461,1789339800.4614754,70
2026-09-13 19:50:00.469,1789339800.4691677,75
2026-09-13 19:50:00.476,1789339800.47686,63
2026-09-13 19:50:00.484,1789339800.4845524,38
2026-09-13 19:50:00.492,1789339800.4922447,26
2026-09-13 19:50:00.499,1789339800.499937,29
2026-09-13 19:50:00.507,1789339800.5076294,33
2026-09-13 19:50:00.515,1789339800.5153215,33
2026-09-13 19:50:00.523,1789339800.5230138,31
2026-09-13 19:50:00.530,1789339800.5307062,33
2026-09-13 19:50:00.538,1789339800.5383985,33
2026-09-13 19:50:00.546,1789339800.5460908,33
2026-09-13 19:50:00.553,1789339800.5537832,38
2026-09-13 19:50:00.561,1789339800.5614755,150
2026-09-13 19:50:00.569,1789339800.5691679,472
2026-09-13 19:50:00.576,1789339800.57686,923
2026-09-13 19:50:00.584,1789339800.5845523,1229
2026-09-13 19:50:00.592,1789339800.5922446,936
2026-09-13 19:50:00.599,1789339800.599937,111
2026-09-13 19:50:00.607,1789339800.6076293,-295
2026-09-13 19:50:00.615,1789339800.6153216,-75
2026-09-13 19:50:00.623,1789339800.623014,0
2026-09-13 19:50:00.630,1789339800.6307063,-118
2026-09-13 19:50:00.638,1789339800.6383984,-75
2026-09-13 19:50:00.646,1789339800.6460907,-24
2026-09-13 19:50:00.653,1789339800.653783,-65
2026-09-13 19:50:00.661,1789339800.6614754,-65
2026-09-13 19:50:00.669,1789339800.6691678,-29
2026-09-13 19:50:00.676,1789339800.67686,-26
2026-09-13 19:50:00.684,1789339800.6845524,-26
2026-09-13 19:50:00.692,1789339800.6922448,-9
2026-09-13 19:50:00.699,1789339800.6999369,0
2026-09-13 19:50:00.707,1789339800.7076292,2
2026-09-13 19:50:00.715,1789339800.7153215,12
2026-09-13 19:50:00.723,1789339800.7230139,21
2026-09-13 19:50:00.730,1789339800.7307062,29
2026-09-13 19:50:00.738,1789339800.7383986,41
2026-09-13 19:50:00.746,1789339800.746091,50
2026-09-13 19:50:00.753,1789339800.7537832,58
2026-09-13 19:50:00.761,1789339800.7614753,72
2026-09-13 19:50:00.769,1789339800.7691677,89
2026-09-13 19:50:00.776,1789339800.77686,109
2026-09-13 19:50:00.784,1789339800.7845523,126
2026-09-13 19:50:00.792,1789339800.7922447,152
2026-09-13 19:50:00.799,1789339800.799937,179
2026-09-13 19:50:00.807,1789339800.8076293,203
2026-09-13 19:50:00.815,1789339800.8153217,230
2026-09-13 19:50:00.823,1789339800.823014,249
2026-09-13 19:50:00.830,1789339800.8307061,266
2026-09-13 19:50:00.838,1789339800.8383985,271
2026-09-13 19:50:00.846,1789339800.8460908,259
2026-09-13 19:50:00.853,1789339800.853252,225
2026-09-13 19:50:00.860,1789339800.8609443,174
2026-09-13 19:50:00.868,1789339800.8686366,121
2026-09-13 19:50:00.876,1789339800.876329,67
2026-09-13 19:50:00.884,1789339800.8840213,19
2026-09-13 19:50:00.891,1789339800.8917134,-14
2026-09-13 19:50:00.899,1789339800.8994057,-36
2026-09-13 19:50:00.907,1789339800.907098,-46
2026-09-13 19:50:00.914,1789339800.9147904,-43
2026-09-13 19:50:00.922,1789339800.9224827,-46
2026-09-13 19:50:00.930,1789339800.930175,-46
2026-09-13 19:50:00.937,1789339800.9378674,-41
2026-09-13 19:50:00.945,1789339800.9455597,-33
2026-09-13 19:50:00.953,1789339800.9532518,-24
2026-09-13 19:50:00.960,1789339800.9609442,-14
2026-09-13 19:50:00.968,1789339800.9686365,-12
2026-09-13 19:50:00.976,1789339800.9763288,-7
2026-09-13 19:50:00.984,1789339800.9840212,2
2026-09-13 19:50:00.991,1789339800.9917135,7
2026-09-13 19:50:00.999,1789339800.9994059,4
2026-09-13 19:50:01.007,1789339801.0070982,9
2026-09-13 19:50:01.014,1789339801.0147903,14
2026-09-13 19:50:01.022,1789339801.0224826,14
2026-09-13 19:50:01.030,1789339801.030175,19
2026-09-13 19:50:01.037,1789339801.0378673,24
2026-09-13 19:50:01.045,1789339801.0455596,24
2026-09-13 19:50:01.053,1789339801.053252,19
2026-09-13 19:50:01.060,1789339801.0609443,21
2026-09-13 19:50:01.068,1789339801.0686367,26
2026-09-13 19:50:01.076,1789339801.0763288,31
2026-09-13 19:50:01.084,1789339801.084021,33
2026-09-13 19:50:01.091,1789339801.0917134,33
2026-09-13 19:50:01.099,1789339801.0994058,33
2026-09-13 19:50:01.107,1789339801.107098,36
2026-09-13 19:50:01.114,1789339801.1147904,38
2026-09-13 19:50:01.122,1789339801.1224828,43
2026-09-13 19:50:01.130,1789339801.130175,48
2026-09-13 19:50:01.137,1789339801.1378672,46
2026-09-13 19:50:01.145,1789339801.1455595,43
2026-09-13 19:50:01.153,1789339801.153252,48
2026-09-13 19:50:01.160,1789339801.1609442,53
2026-09-13 19:50:01.168,1789339801.1686366,48
2026-09-13 19:50:01.176,1789339801.176329,43
2026-09-13 19:50:01.184,1789339801.1840212,48
2026-09-13 19:50:01.191,1789339801.1917136,55
2026-09-13 19:50:01.199,1789339801.1994057,55
2026-09-13 19:50:01.207,1789339801.207098,53
2026-09-13 19:50:01.214,1789339801.2147903,55
2026-09-13 19:50:01.222,1789339801.2224827,60
2026-09-13 19:50:01.230,1789339801.230175,63
2026-09-13 19:50:01.237,1789339801.2378674,60
2026-09-13 19:50:01.245,1789339801.2455597,60
2026-09-13 19:50:01.253,1789339801.253252,58
2026-09-13 19:50:01.260,1789339801.2609441,60
2026-09-13 19:50:01.268,1789339801.2686365,63
2026-09-13 19:50:01.276,1789339801.2763288,60
2026-09-13 19:50:01.284,1789339801.2840211,58
2026-09-13 19:50:01.291,1789339801.2917135,63
2026-09-13 19:50:01.299,1789339801.2994058,65
2026-09-13 19:50:01.307,1789339801.3070982,63
2026-09-13 19:50:01.314,1789339801.3147905,60
2026-09-13 19:50:01.322,1789339801.3224826,60
2026-09-13 19:50:01.330,1789339801.330175,53
2026-09-13 19:50:01.337,1789339801.3378673,53
2026-09-13 19:50:01.345,1789339801.3455596,63
2026-09-13 19:50:01.353,1789339801.353252,72
2026-09-13 19:50:01.360,1789339801.3609443,89
2026-09-13 19:50:01.368,1789339801.3686366,118
2026-09-13 19:50:01.376,1789339801.376329,123
2026-09-13 19:50:01.384,1789339801.3840213,106
2026-09-13 19:50:01.391,1789339801.3917134,94
2026-09-13 19:50:01.399,1789339801.3994057,94
2026-09-13 19:50:01.407,1789339801.407098,82
2026-09-13 19:50:01.414,1789339801.414229,58
2026-09-13 19:50:01.421,1789339801.4219213,46
2026-09-13 19:50:01.429,1789339801.4296136,55
2026-09-13 19:50:01.437,1789339801.437306,63
2026-09-13 19:50:01.444,1789339801.4449983,55
2026-09-13 19:50:01.452,1789339801.4526904,53
2026-09-13 19:50:01.460,1789339801.4603827,63
2026-09-13 19:50:01.468,1789339801.468075,67
2026-09-13 19:50:01.475,1789339801.4757674,53
2026-09-13 19:50:01.483,1789339801.4834597,65
2026-09-13 19:50:01.491,1789339801.491152,225
2026-09-13 19:50:01.498,1789339801.4988444,596
2026-09-13 19:50:01.506,1789339801.5065367,1042
2026-09-13 19:50:01.514,1789339801.5142288,1222
2026-09-13 19:50:01.521,1789339801.5219212,729
2026-09-13 19:50:01.529,1789339801.5296135,-89
2026-09-13 19:50:01.537,1789339801.5373058,-281
2026-09-13 19:50:01.544,1789339801.5449982,2
2026-09-13 19:50:01.552,1789339801.5526905,0
2026-09-13 19:50:01.560,1789339801.5603828,-101
2026-09-13 19:50:01.568,1789339801.5680752,-33
2026-09-13 19:50:01.575,1789339801.5757673,-9
2026-09-13 19:50:01.583,1789339801.5834596,-46
2026-09-13 19:50:01.591,1789339801.591152,-26
2026-09-13 19:50:01.598,1789339801.5988443,2
2026-09-13 19:50:01.606,1789339801.6065366,4
2026-09-13 19:50:01.614,1789339801.614229,9
2026-09-13 19:50:01.621,1789339801.6219213,19
2026-09-13 19:50:01.629,1789339801.6296136,24
2026-09-13 19:50:01.637,1789339801.6373057,29
2026-09-13 19:50:01.644,1789339801.644998,38
2026-09-13 19:50:01.652,1789339801.6526904,53
2026-09-13 19:50:01.660,1789339801.6603827,63
2026-09-13 19:50:01.668,1789339801.668075,67
2026-09-13 19:50:01.675,1789339801.6757674,84
2026-09-13 19:50:01.683,1789339801.6834598,99
2026-09-13 19:50:01.691,1789339801.691152,111
2026-09-13 19:50:01.698,1789339801.6988442,128
2026-09-13 19:50:01.706,1789339801.7065365,147
2026-09-13 19:50:01.714,1789339801.7142289,167
2026-09-13 19:50:01.721,1789339801.7219212,191
2026-09-13 19:50:01.729,1789339801.7296135,225
2026-09-13 19:50:01.737,1789339801.7373059,259
2026-09-13 19:50:01.744,1789339801.7449982,293
2026-09-13 19:50:01.752,1789339801.7526906,307
2026-09-13 19:50:01.760,1789339801.7603827,307
2026-09-13 19:50:01.768,1789339801.768075,307
2026-09-13 19:50:01.775,1789339801.7757673,288
2026-09-13 19:50:01.783,1789339801.7834597,232
2026-09-13 19:50:01.791,1789339801.791152,157
2026-09-13 19:50:01.798,1789339801.7988443,87
2026-09-13 19:50:01.806,1789339801.8065367,31
2026-09-13 19:50:01.814,1789339801.814229,-14
2026-09-13 19:50:01.821,1789339801.821921,-46
2026-09-13 19:50:01.829,1789339801.8296134,-63
2026-09-13 19:50:01.837,1789339801.8373058,-80
2026-09-13 19:50:01.844,1789339801.8449981,-92
2026-09-13 19:50:01.852,1789339801.8526905,-82
2026-09-13 19:50:01.860,1789339801.8603828,-65
2026-09-13 19:50:01.868,1789339801.8680751,-65
2026-09-13 19:50:01.875,1789339801.8757675,-72
2026-09-13 19:50:01.883,1789339801.8834596,-60
2026-09-13 19:50:01.891,1789339801.891152,-43
2026-09-13 19:50:01.898,1789339801.8988442,-41
2026-09-13 19:50:01.906,1789339801.9065366,-43
2026-09-13 19:50:01.914,1789339801.914229,-31
2026-09-13 19:50:01.921,1789339801.9219213,-21
2026-09-13 19:50:01.929,1789339801.9296136,-19
2026-09-13 19:50:01.937,1789339801.937306,-19
2026-09-13 19:50:01.944,1789339801.9449983,-21
2026-09-13 19:50:01.952,1789339801.9526904,-16
2026-09-13 19:50:01.960,1789339801.9603827,-2
2026-09-13 19:50:01.968,1789339801.968075,0
2026-09-13 19:50:01.975,1789339801.975236,-16
2026-09-13 19:50:01.982,1789339801.9829283,-16
2026-09-13 19:50:01.990,1789339801.9906206,9
2026-09-13 19:50:01.998,1789339801.998313,9
2026-09-13 19:50:02.006,1789339802.0060053,-16
2026-09-13 19:50:02.013,1789339802.0136974,-16
2026-09-13 19:50:02.021,1789339802.0213897,7
2026-09-13 19:50:02.029,1789339802.029082,9
2026-09-13 19:50:02.036,1789339802.0367744,2
2026-09-13 19:50:02.044,1789339802.0444667,4
2026-09-13 19:50:02.052,1789339802.052159,12
2026-09-13 19:50:02.059,1789339802.0598514,14
2026-09-13 19:50:02.067,1789339802.0675437,4
2026-09-13 19:50:02.075,1789339802.0752358,9
2026-09-13 19:50:02.082,1789339802.0829282,16
2026-09-13 19:50:02.090,1789339802.0906205,19
2026-09-13 19:50:02.098,1789339802.0983129,14
2026-09-13 19:50:02.106,1789339802.1060052,16
2026-09-13 19:50:02.113,1789339802.1136975,21
2026-09-13 19:50:02.121,1789339802.1213899,9
2026-09-13 19:50:02.129,1789339802.1290822,-2
2026-09-13 19:50:02.136,1789339802.1367743,9
2026-09-13 19:50:02.144,1789339802.1444666,33
2026-09-13 19:50:02.152,1789339802.152159,48
2026-09-13 19:50:02.159,1789339802.1598513,70
2026-09-13 19:50:02.167,1789339802.1675436,89
2026-09-13 19:50:02.175,1789339802.175236,72
2026-09-13 19:50:02.182,1789339802.1829283,53
2026-09-13 19:50:02.190,1789339802.1906207,63
2026-09-13 19:50:02.198,1789339802.1983128,48
2026-09-13 19:50:02.206,1789339802.206005,4
2026-09-13 19:50:02.213,1789339802.2136974,-2
2026-09-13 19:50:02.221,1789339802.2213898,16
2026-09-13 19:50:02.229,1789339802.229082,26
2026-09-13 19:50:02.236,1789339802.2367744,21
2026-09-13 19:50:02.244,1789339802.2444668,14
2026-09-13 19:50:02.252,1789339802.252159,12
2026-09-13 19:50:02.259,1789339802.2598512,14
2026-09-13 19:50:02.267,1789339802.2675436,16
2026-09-13 19:50:02.275,1789339802.275236,31
2026-09-13 19:50:02.282,1789339802.2829282,106
2026-09-13 19:50:02.290,1789339802.2906206,356
2026-09-13 19:50:02.298,1789339802.298313,797
2026-09-13 19:50:02.306,1789339802.3060052,1183
2026-09-13 19:50:02.313,1789339802.3136976,994
2026-09-13 19:50:02.321,1789339802.3213897,123
2026-09-13 19:50:02.329,1789339802.329082,-463
2026-09-13 19:50:02.336,1789339802.3367743,-235
2026-09-13 19:50:02.344,1789339802.3444667,4
2026-09-13 19:50:02.352,1789339802.352159,-84
2026-09-13 19:50:02.359,1789339802.3598514,-84
2026-09-13 19:50:02.367,1789339802.3675437,-14
2026-09-13 19:50:02.375,1789339802.375236,-29
2026-09-13 19:50:02.382,1789339802.3829281,-38
2026-09-13 19:50:02.390,1789339802.3906205,-19
2026-09-13 19:50:02.398,1789339802.3983128,-12
2026-09-13 19:50:02.406,1789339802.4060051,9
2026-09-13 19:50:02.413,1789339802.4136975,33
2026-09-13 19:50:02.421,1789339802.4213898,41
2026-09-13 19:50:02.429,1789339802.4290822,46
2026-09-13 19:50:02.436,1789339802.4367745,58
2026-09-13 19:50:02.444,1789339802.4444666,63
2026-09-13 19:50:02.452,1789339802.452159,58
2026-09-13 19:50:02.459,1789339802.4598513,67
2026-09-13 19:50:02.467,1789339802.4675436,104
2026-09-13 19:50:02.475,1789339802.475236,128
2026-09-13 19:50:02.482,1789339802.4829283,121
2026-09-13 19:50:02.490,1789339802.4906206,128
2026-09-13 19:50:02.498,1789339802.498313,167
2026-09-13 19:50:02.506,1789339802.5060053,196
2026-09-13 19:50:02.513,1789339802.5136974,223
2026-09-13 19:50:02.521,1789339802.5213897,274
2026-09-13 19:50:02.529,1789339802.529082,324
2026-09-13 19:50:02.536,1789339802.536213,346
2026-09-13 19:50:02.543,1789339802.5439053,361
2026-09-13 19:50:02.551,1789339802.5515976,390
2026-09-13 19:50:02.559,1789339802.55929,390
2026-09-13 19:50:02.566,1789339802.5669823,337
2026-09-13 19:50:02.574,1789339802.5746744,269
2026-09-13 19:50:02.582,1789339802.5823667,201
2026-09-13 19:50:02.590,1789339802.590059,104
2026-09-13 19:50:02.597,1789339802.5977514,7
2026-09-13 19:50:02.605,1789339802.6054437,-38
2026-09-13 19:50:02.613,1789339802.613136,-53
2026-09-13 19:50:02.620,1789339802.6208284,-94
2026-09-13 19:50:02.628,1789339802.6285207,-126
2026-09-13 19:50:02.636,1789339802.6362128,-123
2026-09-13 19:50:02.643,1789339802.6439052,-123
2026-09-13 19:50:02.651,1789339802.6515975,-118
2026-09-13 19:50:02.659,1789339802.6592898,-109
2026-09-13 19:50:02.666,1789339802.6669822,-101
2026-09-13 19:50:02.674,1789339802.6746745,-87
2026-09-13 19:50:02.682,1789339802.6823668,-72
2026-09-13 19:50:02.690,1789339802.6900592,-67
2026-09-13 19:50:02.697,1789339802.6977513,-65
2026-09-13 19:50:02.705,1789339802.7054436,-50
2026-09-13 19:50:02.713,1789339802.713136,-31
2026-09-13 19:50:02.720,1789339802.7208283,-33
2026-09-13 19:50:02.728,1789339802.7285206,-48
2026-09-13 19:50:02.736,1789339802.736213,-43
2026-09-13 19:50:02.743,1789339802.7439053,-24
2026-09-13 19:50:02.751,1789339802.7515976,-21
2026-09-13 19:50:02.759,1789339802.7592897,-29
2026-09-13 19:50:02.766,1789339802.766982,-12
2026-09-13 19:50:02.774,1789339802.7746744,-4
2026-09-13 19:50:02.782,1789339802.7823668,-26
2026-09-13 19:50:02.790,1789339802.790059,-14
2026-09-13 19:50:02.797,1789339802.7977514,9
2026-09-13 19:50:02.805,1789339802.8054438,2
2026-09-13 19:50:02.813,1789339802.813136,-9
2026-09-13 19:50:02.820,1789339802.8208282,0
2026-09-13 19:50:02.828,1789339802.8285205,16
2026-09-13 19:50:02.836,1789339802.8362129,16
2026-09-13 19:50:02.843,1789339802.8439052,-9
2026-09-13 19:50:02.851,1789339802.8515975,-9
2026-09-13 19:50:02.859,1789339802.85929,33
2026-09-13 19:50:02.866,1789339802.8669822,60
2026-09-13 19:50:02.874,1789339802.8746746,55
2026-09-13 19:50:02.882,1789339802.8823667,67
2026-09-13 19:50:02.890,1789339802.890059,82
2026-09-13 19:50:02.897,1789339802.8977513,70
2026-09-13 19:50:02.905,1789339802.9054437,70
2026-09-13 19:50:02.913,1789339802.913136,80
2026-09-13 19:50:02.920,1789339802.9208283,60
2026-09-13 19:50:02.928,1789339802.9285207,50
2026-09-13 19:50:02.936,1789339802.936213,53
2026-09-13 19:50:02.943,1789339802.943905,38
2026-09-13 19:50:02.951,1789339802.9515975,41
2026-09-13 19:50:02.959,1789339802.9592898,41
2026-09-13 19:50:02.966,1789339802.9669821,21
2026-09-13 19:50:02.974,1789339802.9746745,43
2026-09-13 19:50:02.982,1789339802.9823668,65
2026-09-13 19:50:02.990,1789339802.9900591,48
2026-09-13 19:50:02.997,1789339802.9977515,60
2026-09-13 19:50:03.005,1789339803.0054436,155
2026-09-13 19:50:03.013,1789339803.013136,426
2026-09-13 19:50:03.020,1789339803.0208282,938
2026-09-13 19:50:03.028,1789339803.0285206,1370
2026-09-13 19:50:03.036,1789339803.036213,1103
2026-09-13 19:50:03.043,1789339803.0439053,150
2026-09-13 19:50:03.051,1789339803.0515976,-397
2026-09-13 19:50:03.059,1789339803.05929,-138
2026-09-13 19:50:03.066,1789339803.0669823,41
2026-09-13 19:50:03.074,1789339803.0746744,-87
2026-09-13 19:50:03.082,1789339803.0823667,-67
2026-09-13 19:50:03.090,1789339803.090059,14
2026-09-13 19:50:03.097,1789339803.0972202,-4
2026-09-13 19:50:03.104,1789339803.1049125,0
2026-09-13 19:50:03.112,1789339803.1126049,36
2026-09-13 19:50:03.120,1789339803.1202972,29
2026-09-13 19:50:03.127,1789339803.1279895,24
2026-09-13 19:50:03.135,1789339803.1356816,43
2026-09-13 19:50:03.143,1789339803.143374,55
2026-09-13 19:50:03.151,1789339803.1510663,65
2026-09-13 19:50:03.158,1789339803.1587586,80
2026-09-13 19:50:03.166,1789339803.166451,89
2026-09-13 19:50:03.174,1789339803.1741433,92
2026-09-13 19:50:03.181,1789339803.1818357,104
2026-09-13 19:50:03.189,1789339803.189528,123
2026-09-13 19:50:03.197,1789339803.19722,130
2026-09-13 19:50:03.204,1789339803.2049124,155
2026-09-13 19:50:03.212,1789339803.2126048,198
2026-09-13 19:50:03.220,1789339803.220297,210
2026-09-13 19:50:03.227,1789339803.2279894,215
2026-09-13 19:50:03.235,1789339803.2356818,264
2026-09-13 19:50:03.243,1789339803.243374,327
2026-09-13 19:50:03.251,1789339803.2510664,356
2026-09-13 19:50:03.258,1789339803.2587585,363
2026-09-13 19:50:03.266,1789339803.266451,385
2026-09-13 19:50:03.274,1789339803.2741432,402
2026-09-13 19:50:03.281,1789339803.2818356,395
2026-09-13 19:50:03.289,1789339803.289528,368
2026-09-13 19:50:03.297,1789339803.2972202,300
2026-09-13 19:50:03.304,1789339803.3049126,203
2026-09-13 19:50:03.312,1789339803.312605,111
2026-09-13 19:50:03.320,1789339803.320297,26
2026-09-13 19:50:03.327,1789339803.3279893,-31
2026-09-13 19:50:03.335,1789339803.3356817,-50
2026-09-13 19:50:03.343,1789339803.343374,-72
2026-09-13 19:50:03.351,1789339803.3510664,-92
2026-09-13 19:50:03.358,1789339803.3587587,-94
2026-09-13 19:50:03.366,1789339803.366451,-92
2026-09-13 19:50:03.374,1789339803.3741434,-97
2026-09-13 19:50:03.381,1789339803.3818355,-101
2026-09-13 19:50:03.389,1789339803.3895278,-84
2026-09-13 19:50:03.397,1789339803.3972201,-58
2026-09-13 19:50:03.404,1789339803.4049125,-58
2026-09-13 19:50:03.412,1789339803.4126048,-60
2026-09-13 19:50:03.420,1789339803.4202971,-41
2026-09-13 19:50:03.427,1789339803.4279895,-31
2026-09-13 19:50:03.435,1789339803.4356818,-31
2026-09-13 19:50:03.443,1789339803.443374,-31
2026-09-13 19:50:03.451,1789339803.4510663,-19
2026-09-13 19:50:03.458,1789339803.4587586,-9
2026-09-13 19:50:03.466,1789339803.466451,-24
2026-09-13 19:50:03.474,1789339803.4741433,-33
2026-09-13 19:50:03.481,1789339803.4818356,-19
2026-09-13 19:50:03.489,1789339803.489528,-7
2026-09-13 19:50:03.497,1789339803.4972203,-19
2026-09-13 19:50:03.504,1789339803.5049124,-24
2026-09-13 19:50:03.512,1789339803.5126047,-7
2026-09-13 19:50:03.520,1789339803.520297,-4
2026-09-13 19:50:03.527,1789339803.5279894,-21
2026-09-13 19:50:03.535,1789339803.5356817,-29
2026-09-13 19:50:03.543,1789339803.543374,-31
2026-09-13 19:50:03.551,1789339803.5510664,-21
2026-09-13 19:50:03.558,1789339803.5587587,0
2026-09-13 19:50:03.566,1789339803.5664508,4
2026-09-13 19:50:03.574,1789339803.5741432,14
2026-09-13 19:50:03.581,1789339803.5818355,41
2026-09-13 19:50:03.589,1789339803.5895278,43
2026-09-13 19:50:03.597,1789339803.5972202,31
2026-09-13 19:50:03.604,1789339803.6049125,16
2026-09-13 19:50:03.612,1789339803.6126049,2
2026-09-13 19:50:03.620,1789339803.6202972,-12
2026-09-13 19:50:03.627,1789339803.6279895,-24
2026-09-13 19:50:03.635,1789339803.6356816,-31
2026-09-13 19:50:03.643,1789339803.643374,-24
2026-09-13 19:50:03.651,1789339803.6510663,-16
2026-09-13 19:50:03.658,1789339803.658197,-16
2026-09-13 19:50:03.665,1789339803.6658893,-21
2026-09-13 19:50:03.673,1789339803.6735816,-14
2026-09-13 19:50:03.681,1789339803.681274,-9
2026-09-13 19:50:03.688,1789339803.6889663,-16
2026-09-13 19:50:03.696,1789339803.6966584,58
2026-09-13 19:50:03.704,1789339803.7043507,373
2026-09-13 19:50:03.712,1789339803.712043,899
2026-09-13 19:50:03.719,1789339803.7197354,1311
2026-09-13 19:50:03.727,1789339803.7274277,1071
2026-09-13 19:50:03.735,1789339803.73512,155
2026-09-13 19:50:03.742,1789339803.7428124,-434
2026-09-13 19:50:03.750,1789339803.7505047,-220
2026-09-13 19:50:03.758,1789339803.7581968,-29
2026-09-13 19:50:03.765,1789339803.7658892,-150
2026-09-13 19:50:03.773,1789339803.7735815,-155
2026-09-13 19:50:03.781,1789339803.7812738,-87
2026-09-13 19:50:03.788,1789339803.7889662,-111
2026-09-13 19:50:03.796,1789339803.7966585,-109
2026-09-13 19:50:03.804,1789339803.8043509,-70
2026-09-13 19:50:03.812,1789339803.8120432,-77
2026-09-13 19:50:03.819,1789339803.8197353,-82
2026-09-13 19:50:03.827,1789339803.8274276,-53
2026-09-13 19:50:03.835,1789339803.83512,-38
2026-09-13 19:50:03.842,1789339803.8428123,-48
2026-09-13 19:50:03.850,1789339803.8505046,-41
2026-09-13 19:50:03.858,1789339803.858197,-24
2026-09-13 19:50:03.865,1789339803.8658893,-14
2026-09-13 19:50:03.873,1789339803.8735816,4
2026-09-13 19:50:03.881,1789339803.8812737,14
2026-09-13 19:50:03.888,1789339803.888966,14
2026-09-13 19:50:03.896,1789339803.8966584,33
2026-09-13 19:50:03.904,1789339803.9043508,60
2026-09-13 19:50:03.912,1789339803.912043,72
2026-09-13 19:50:03.919,1789339803.9197354,101
2026-09-13 19:50:03.927,1789339803.9274278,140
2026-09-13 19:50:03.935,1789339803.93512,174
2026-09-13 19:50:03.942,1789339803.9428122,208
2026-09-13 19:50:03.950,1789339803.9505045,235
2026-09-13 19:50:03.958,1789339803.9581969,247
2026-09-13 19:50:03.965,1789339803.9658892,257
2026-09-13 19:50:03.973,1789339803.9735816,257
2026-09-13 19:50:03.981,1789339803.981274,227
2026-09-13 19:50:03.988,1789339803.9889662,160
2026-09-13 19:50:03.996,1789339803.9966586,72
2026-09-13 19:50:04.004,1789339804.0043507,0
2026-09-13 19:50:04.012,1789339804.012043,-53
2026-09-13 19:50:04.019,1789339804.0197353,-101
2026-09-13 19:50:04.027,1789339804.0274277,-135
2026-09-13 19:50:04.035,1789339804.03512,-152
2026-09-13 19:50:04.042,1789339804.0428123,-167
2026-09-13 19:50:04.050,1789339804.0505047,-162
2026-09-13 19:50:04.058,1789339804.058197,-147
2026-09-13 19:50:04.065,1789339804.0658891,-150
2026-09-13 19:50:04.073,1789339804.0735815,-160
2026-09-13 19:50:04.081,1789339804.0812738,-152
2026-09-13 19:50:04.088,1789339804.0889661,-133
2026-09-13 19:50:04.096,1789339804.0966585,-123
2026-09-13 19:50:04.104,1789339804.1043508,-111
2026-09-13 19:50:04.112,1789339804.1120431,-104
2026-09-13 19:50:04.119,1789339804.1197355,-104
2026-09-13 19:50:04.127,1789339804.1274276,-97
2026-09-13 19:50:04.135,1789339804.13512,-92
2026-09-13 19:50:04.142,1789339804.1428123,-89
2026-09-13 19:50:04.150,1789339804.1505046,-84
2026-09-13 19:50:04.158,1789339804.158197,-82
2026-09-13 19:50:04.165,1789339804.1658893,-84
2026-09-13 19:50:04.173,1789339804.1735816,-80
2026-09-13 19:50:04.181,1789339804.181274,-75
2026-09-13 19:50:04.188,1789339804.1889663,-77
2026-09-13 19:50:04.196,1789339804.1966584,-77
2026-09-13 19:50:04.204,1789339804.2043507,-72
2026-09-13 19:50:04.212,1789339804.212043,-67
2026-09-13 19:50:04.219,1789339804.2192042,-67
2026-09-13 19:50:04.226,1789339804.2268965,-67
2026-09-13 19:50:04.234,1789339804.2345889,-67
2026-09-13 19:50:04.242,1789339804.2422812,-70
2026-09-13 19:50:04.249,1789339804.2499735,-77
2026-09-13 19:50:04.257,1789339804.2576656,-75
2026-09-13 19:50:04.265,1789339804.265358,-65
2026-09-13 19:50:04.273,1789339804.2730503,-50
2026-09-13 19:50:04.280,1789339804.2807426,-21
2026-09-13 19:50:04.288,1789339804.288435,-2
2026-09-13 19:50:04.296,1789339804.2961273,-4
2026-09-13 19:50:04.303,1789339804.3038197,-4
2026-09-13 19:50:04.311,1789339804.311512,-2
2026-09-13 19:50:04.319,1789339804.319204,-16
2026-09-13 19:50:04.326,1789339804.3268964,-41
2026-09-13 19:50:04.334,1789339804.3345888,-48
2026-09-13 19:50:04.342,1789339804.342281,-38
2026-09-13 19:50:04.349,1789339804.3499734,-36
2026-09-13 19:50:04.357,1789339804.3576658,-41
2026-09-13 19:50:04.365,1789339804.365358,-38
2026-09-13 19:50:04.373,1789339804.3730505,-33
2026-09-13 19:50:04.380,1789339804.3807425,-29
2026-09-13 19:50:04.388,1789339804.388435,-31
2026-09-13 19:50:04.396,1789339804.3961272,-38
2026-09-13 19:50:04.403,1789339804.4038196,-14
2026-09-13 19:50:04.411,1789339804.411512,174
2026-09-13 19:50:04.419,1789339804.4192042,618
2026-09-13 19:50:04.426,1789339804.4268966,1130
2026-09-13 19:50:04.434,1789339804.434589,1256
2026-09-13 19:50:04.442,1789339804.442281,642
2026-09-13 19:50:04.449,1789339804.4499733,-186
2026-09-13 19:50:04.457,1789339804.4576657,-327
2026-09-13 19:50:04.465,1789339804.465358,-67
2026-09-13 19:50:04.473,1789339804.4730504,-106
2026-09-13 19:50:04.480,1789339804.4807427,-198
2026-09-13 19:50:04.488,1789339804.488435,-118
2026-09-13 19:50:04.496,1789339804.4961274,-99
2026-09-13 19:50:04.503,1789339804.5038195,-133
2026-09-13 19:50:04.511,1789339804.5115118,-104
2026-09-13 19:50:04.519,1789339804.5192041,-77
2026-09-13 19:50:04.526,1789339804.5268965,-82
2026-09-13 19:50:04.534,1789339804.5345888,-77
2026-09-13 19:50:04.542,1789339804.5422812,-53
2026-09-13 19:50:04.549,1789339804.5499735,-41
2026-09-13 19:50:04.557,1789339804.5576658,-41
2026-09-13 19:50:04.565,1789339804.565358,-33
2026-09-13 19:50:04.573,1789339804.5730503,-21
2026-09-13 19:50:04.580,1789339804.5807426,-12
2026-09-13 19:50:04.588,1789339804.588435,-2
2026-09-13 19:50:04.596,1789339804.5961273,7
2026-09-13 19:50:04.603,1789339804.6038196,9
2026-09-13 19:50:04.611,1789339804.611512,16
2026-09-13 19:50:04.619,1789339804.6192043,50
2026-09-13 19:50:04.626,1789339804.6268964,82
2026-09-13 19:50:04.634,1789339804.6345887,97
2026-09-13 19:50:04.642,1789339804.642281,126
2026-09-13 19:50:04.649,1789339804.6499734,157
2026-09-13 19:50:04.657,1789339804.6576657,179
2026-09-13 19:50:04.665,1789339804.665358,201
2026-09-13 19:50:04.673,1789339804.6730504,218
2026-09-13 19:50:04.680,1789339804.6807427,218
2026-09-13 19:50:04.688,1789339804.6884348,201
2026-09-13 19:50:04.696,1789339804.6961272,167
2026-09-13 19:50:04.703,1789339804.7038195,118
2026-09-13 19:50:04.711,1789339804.7115119,53
2026-09-13 19:50:04.719,1789339804.7192042,-7
2026-09-13 19:50:04.726,1789339804.7268965,-50
2026-09-13 19:50:04.734,1789339804.7345889,-82
2026-09-13 19:50:04.742,1789339804.7422812,-101
2026-09-13 19:50:04.749,1789339804.7499735,-113
2026-09-13 19:50:04.757,1789339804.7576656,-121
2026-09-13 19:50:04.765,1789339804.765358,-123
2026-09-13 19:50:04.773,1789339804.7730503,-113
2026-09-13 19:50:04.780,1789339804.7801812,-99
2026-09-13 19:50:04.787,1789339804.7878735,-97
2026-09-13 19:50:04.795,1789339804.7955658,-94
2026-09-13 19:50:04.803,1789339804.8032582,-89
2026-09-13 19:50:04.810,1789339804.8109505,-82
2026-09-13 19:50:04.818,1789339804.8186426,-80
2026-09-13 19:50:04.826,1789339804.826335,-75
2026-09-13 19:50:04.834,1789339804.8340273,-63
2026-09-13 19:50:04.841,1789339804.8417196,-58
2026-09-13 19:50:04.849,1789339804.849412,-63
2026-09-13 19:50:04.857,1789339804.8571043,-63
2026-09-13 19:50:04.864,1789339804.8647966,-58
2026-09-13 19:50:04.872,1789339804.872489,-53
2026-09-13 19:50:04.880,1789339804.880181,-48
2026-09-13 19:50:04.887,1789339804.8878734,-46
2026-09-13 19:50:04.895,1789339804.8955657,-43
2026-09-13 19:50:04.903,1789339804.903258,-36
2026-09-13 19:50:04.910,1789339804.9109504,-36
2026-09-13 19:50:04.918,1789339804.9186428,-38
2026-09-13 19:50:04.926,1789339804.926335,-33
2026-09-13 19:50:04.934,1789339804.9340274,-29
2026-09-13 19:50:04.941,1789339804.9417195,-26
2026-09-13 19:50:04.949,1789339804.9494119,-24
2026-09-13 19:50:04.957,1789339804.9571042,-24
2026-09-13 19:50:04.964,1789339804.9647965,-21
2026-09-13 19:50:04.972,1789339804.9724889,-14
2026-09-13 19:50:04.980,1789339804.9801812,-14
2026-09-13 19:50:04.987,1789339804.9878736,-16
2026-09-13 19:50:04.995,1789339804.995566,-12
2026-09-13 19:50:05.003,1789339805.003258,-2
2026-09-13 19:50:05.010,1789339805.0109503,2
2026-09-13 19:50:05.018,1789339805.0186427,0
2026-09-13 19:50:05.026,1789339805.026335,-2
2026-09-13 19:50:05.034,1789339805.0340273,0
2026-09-13 19:50:05.041,1789339805.0417197,9
2026-09-13 19:50:05.049,1789339805.049412,16
2026-09-13 19:50:05.057,1789339805.0571043,16
2026-09-13 19:50:05.064,1789339805.0647964,12
2026-09-13 19:50:05.072,1789339805.0724888,2
2026-09-13 19:50:05.080,1789339805.0801811,-4
2026-09-13 19:50:05.087,1789339805.0878735,0
2026-09-13 19:50:05.095,1789339805.0955658,12
2026-09-13 19:50:05.103,1789339805.1032581,21
2026-09-13 19:50:05.110,1789339805.1109505,48
2026-09-13 19:50:05.118,1789339805.1186428,72
2026-09-13 19:50:05.126,1789339805.126335,72
2026-09-13 19:50:05.134,1789339805.1340272,58
2026-09-13 19:50:05.141,1789339805.1417196,53
2026-09-13 19:50:05.149,1789339805.149412,63
2026-09-13 19:50:05.157,1789339805.1571043,55
2026-09-13 19:50:05.164,1789339805.1647966,33
2026-09-13 19:50:05.172,1789339805.172489,21
2026-09-13 19:50:05.180,1789339805.1801813,21
2026-09-13 19:50:05.187,1789339805.1878734,29
2026-09-13 19:50:05.195,1789339805.1955657,33
2026-09-13 19:50:05.203,1789339805.203258,33
2026-09-13 19:50:05.210,1789339805.2109504,36
2026-09-13 19:50:05.218,1789339805.2186427,41
2026-09-13 19:50:05.226,1789339805.226335,36
2026-09-13 19:50:05.234,1789339805.2340274,38
2026-09-13 19:50:05.241,1789339805.2417197,157
2026-09-13 19:50:05.249,1789339805.2494118,502
2026-09-13 19:50:05.257,1789339805.2571042,977
2026-09-13 19:50:05.264,1789339805.2647965,1268
2026-09-13 19:50:05.272,1789339805.2724888,948
2026-09-13 19:50:05.280,1789339805.2801812,126
2026-09-13 19:50:05.287,1789339805.2878735,-276
2026-09-13 19:50:05.295,1789339805.2955658,-72
2026-09-13 19:50:05.303,1789339805.3032582,0
2026-09-13 19:50:05.310,1789339805.3109505,-99
2026-09-13 19:50:05.318,1789339805.3186426,-53
2026-09-13 19:50:05.326,1789339805.326335,-9
2026-09-13 19:50:05.334,1789339805.3340273,-41
2026-09-13 19:50:05.341,1789339805.3411884,-29
2026-09-13 19:50:05.348,1789339805.3488808,0
2026-09-13 19:50:05.356,1789339805.356573,2
2026-09-13 19:50:05.364,1789339805.3642654,14
2026-09-13 19:50:05.371,1789339805.3719578,33
2026-09-13 19:50:05.379,1789339805.3796499,36
2026-09-13 19:50:05.387,1789339805.3873422,43
2026-09-13 19:50:05.395,1789339805.3950346,60
2026-09-13 19:50:05.402,1789339805.402727,70
2026-09-13 19:50:05.410,1789339805.4104192,77
2026-09-13 19:50:05.418,1789339805.4181116,92
2026-09-13 19:50:05.425,1789339805.425804,104
2026-09-13 19:50:05.433,1789339805.4334962,113
2026-09-13 19:50:05.441,1789339805.4411883,121
2026-09-13 19:50:05.448,1789339805.4488807,138
2026-09-13 19:50:05.456,1789339805.456573,160
2026-09-13 19:50:05.464,1789339805.4642653,181
2026-09-13 19:50:05.471,1789339805.4719577,201
2026-09-13 19:50:05.479,1789339805.47965,227
2026-09-13 19:50:05.487,1789339805.4873424,257
2026-09-13 19:50:05.495,1789339805.4950347,281
2026-09-13 19:50:05.502,1789339805.5027268,298
2026-09-13 19:50:05.510,1789339805.5104191,305
2026-09-13 19:50:05.518,1789339805.5181115,305
2026-09-13 19:50:05.525,1789339805.5258038,295
2026-09-13 19:50:05.533,1789339805.5334961,259
2026-09-13 19:50:05.541,1789339805.5411885,201
2026-09-13 19:50:05.548,1789339805.5488808,145
2026-09-13 19:50:05.556,1789339805.5565732,97
2026-09-13 19:50:05.564,1789339805.5642653,53
2026-09-13 19:50:05.571,1789339805.5719576,24
2026-09-13 19:50:05.579,1789339805.57965,12
2026-09-13 19:50:05.587,1789339805.5873423,2
2026-09-13 19:50:05.595,1789339805.5950346,-2
2026-09-13 19:50:05.602,1789339805.602727,2
2026-09-13 19:50:05.610,1789339805.6104193,9
2026-09-13 19:50:05.618,1789339805.6181116,12
2026-09-13 19:50:05.625,1789339805.6258037,14
2026-09-13 19:50:05.633,1789339805.633496,21
2026-09-13 19:50:05.641,1789339805.6411884,31
2026-09-13 19:50:05.648,1789339805.6488807,31
2026-09-13 19:50:05.656,1789339805.656573,29
2026-09-13 19:50:05.664,1789339805.6642654,33
2026-09-13 19:50:05.671,1789339805.6719577,36
2026-09-13 19:50:05.679,1789339805.67965,41
2026-09-13 19:50:05.687,1789339805.6873422,46
2026-09-13 19:50:05.695,1789339805.6950345,46
2026-09-13 19:50:05.702,1789339805.7027268,41
2026-09-13 19:50:05.710,1789339805.7104192,41
2026-09-13 19:50:05.718,1789339805.7181115,43
2026-09-13 19:50:05.725,1789339805.7258039,43
2026-09-13 19:50:05.733,1789339805.7334962,43
2026-09-13 19:50:05.741,1789339805.7411885,48
2026-09-13 19:50:05.748,1789339805.7488806,48
2026-09-13 19:50:05.756,1789339805.756573,48
2026-09-13 19:50:05.764,1789339805.7642653,53
2026-09-13 19:50:05.771,1789339805.7719576,50
2026-09-13 19:50:05.779,1789339805.77965,46
2026-09-13 19:50:05.787,1789339805.7873423,46
2026-09-13 19:50:05.795,1789339805.7950346,50
2026-09-13 19:50:05.802,1789339805.802727,50
2026-09-13 19:50:05.810,1789339805.810419,50
2026-09-13 19:50:05.818,1789339805.8181114,50
2026-09-13 19:50:05.825,1789339805.8258038,48
2026-09-13 19:50:05.833,1789339805.833496,53
2026-09-13 19:50:05.841,1789339805.8411884,53
2026-09-13 19:50:05.848,1789339805.8488808,48
2026-09-13 19:50:05.856,1789339805.856573,46
2026-09-13 19:50:05.864,1789339805.8642654,48
2026-09-13 19:50:05.871,1789339805.8719578,55
2026-09-13 19:50:05.879,1789339805.8796499,55
2026-09-13 19:50:05.887,1789339805.8873422,48
2026-09-13 19:50:05.895,1789339805.8950346,46
2026-09-13 19:50:05.902,1789339805.9021957,50
2026-09-13 19:50:05.909,1789339805.909888,53
2026-09-13 19:50:05.917,1789339805.9175804,53
2026-09-13 19:50:05.925,1789339805.9252727,50
2026-09-13 19:50:05.932,1789339805.932965,48
2026-09-13 19:50:05.940,1789339805.9406571,46
2026-09-13 19:50:05.948,1789339805.9483495,48
2026-09-13 19:50:05.956,1789339805.9560418,55
2026-09-13 19:50:05.963,1789339805.9637341,55
2026-09-13 19:50:05.971,1789339805.9714265,48
2026-09-13 19:50:05.979,1789339805.9791188,46
2026-09-13 19:50:05.986,1789339805.9868112,48
2026-09-13 19:50:05.994,1789339805.9945035,46
2026-09-13 19:50:06.002,1789339806.0021956,46
2026-09-13 19:50:06.009,1789339806.009888,48
2026-09-13 19:50:06.017,1789339806.0175803,43
2026-09-13 19:50:06.025,1789339806.0252726,36
2026-09-13 19:50:06.032,1789339806.032965,43
2026-09-13 19:50:06.040,1789339806.0406573,48
2026-09-13 19:50:06.048,1789339806.0483496,38
2026-09-13 19:50:06.056,1789339806.056042,33
2026-09-13 19:50:06.063,1789339806.063734,36
2026-09-13 19:50:06.071,1789339806.0714264,31
2026-09-13 19:50:06.079,1789339806.0791187,21
2026-09-13 19:50:06.086,1789339806.086811,26
2026-09-13 19:50:06.094,1789339806.0945034,41
2026-09-13 19:50:06.102,1789339806.1021957,55
2026-09-13 19:50:06.109,1789339806.109888,77
2026-09-13 19:50:06.117,1789339806.1175804,89
2026-09-13 19:50:06.125,1789339806.1252725,77
2026-09-13 19:50:06.132,1789339806.1329648,63
2026-09-13 19:50:06.140,1789339806.1406572,58
2026-09-13 19:50:06.148,1789339806.1483495,43
2026-09-13 19:50:06.156,1789339806.1560419,29
2026-09-13 19:50:06.163,1789339806.1637342,16
2026-09-13 19:50:06.171,1789339806.1714265,9
2026-09-13 19:50:06.179,1789339806.1791189,9
2026-09-13 19:50:06.186,1789339806.186811,14
2026-09-13 19:50:06.194,1789339806.1945033,14
2026-09-13 19:50:06.202,1789339806.2021956,9
2026-09-13 19:50:06.209,1789339806.209888,7
2026-09-13 19:50:06.217,1789339806.2175803,12
2026-09-13 19:50:06.225,1789339806.2252727,0
2026-09-13 19:50:06.232,1789339806.232965,24
2026-09-13 19:50:06.240,1789339806.2406573,225
2026-09-13 19:50:06.248,1789339806.2483494,637
2026-09-13 19:50:06.256,1789339806.2560418,1076
2026-09-13 19:50:06.263,1789339806.263734,1173
2026-09-13 19:50:06.271,1789339806.2714264,577
2026-09-13 19:50:06.279,1789339806.2791188,-191
2026-09-13 19:50:06.286,1789339806.286811,-266
2026-09-13 19:50:06.294,1789339806.2945035,-24
2026-09-13 19:50:06.302,1789339806.3021958,-87
2026-09-13 19:50:06.309,1789339806.309888,-160
2026-09-13 19:50:06.317,1789339806.3175802,-87
2026-09-13 19:50:06.325,1789339806.3252726,-82
2026-09-13 19:50:06.332,1789339806.332965,-106
2026-09-13 19:50:06.340,1789339806.3406572,-75
2026-09-13 19:50:06.348,1789339806.3483496,-60
2026-09-13 19:50:06.356,1789339806.356042,-67
2026-09-13 19:50:06.363,1789339806.3637342,-55
2026-09-13 19:50:06.371,1789339806.3714263,-38
2026-09-13 19:50:06.379,1789339806.3791187,-31
2026-09-13 19:50:06.386,1789339806.386811,-26
2026-09-13 19:50:06.394,1789339806.3945034,-19
2026-09-13 19:50:06.402,1789339806.4021957,-14
2026-09-13 19:50:06.409,1789339806.409888,-4
2026-09-13 19:50:06.417,1789339806.4175804,4
2026-09-13 19:50:06.425,1789339806.4252727,19
2026-09-13 19:50:06.432,1789339806.432965,33
2026-09-13 19:50:06.440,1789339806.4406571,41
2026-09-13 19:50:06.448,1789339806.4483495,55
2026-09-13 19:50:06.456,1789339806.4560418,80
2026-09-13 19:50:06.463,1789339806.463203,101
2026-09-13 19:50:06.470,1789339806.4708953,123
2026-09-13 19:50:06.478,1789339806.4785876,147
2026-09-13 19:50:06.486,1789339806.48628,169
2026-09-13 19:50:06.493,1789339806.4939723,186
2026-09-13 19:50:06.501,1789339806.5016644,198
2026-09-13 19:50:06.509,1789339806.5093567,208
2026-09-13 19:50:06.517,1789339806.517049,206
2026-09-13 19:50:06.524,1789339806.5247414,189
2026-09-13 19:50:06.532,1789339806.5324337,152
2026-09-13 19:50:06.540,1789339806.540126,104
2026-09-13 19:50:06.547,1789339806.5478184,46
2026-09-13 19:50:06.555,1789339806.5555108,-2
2026-09-13 19:50:06.563,1789339806.5632029,-43
2026-09-13 19:50:06.570,1789339806.5708952,-72
2026-09-13 19:50:06.578,1789339806.5785875,-89
2026-09-13 19:50:06.586,1789339806.5862799,-97
2026-09-13 19:50:06.593,1789339806.5939722,-99
2026-09-13 19:50:06.601,1789339806.6016645,-94
2026-09-13 19:50:06.609,1789339806.6093569,-84
2026-09-13 19:50:06.617,1789339806.6170492,-80
2026-09-13 19:50:06.624,1789339806.6247413,-77
2026-09-13 19:50:06.632,1789339806.6324337,-72
2026-09-13 19:50:06.640,1789339806.640126,-63
2026-09-13 19:50:06.647,1789339806.6478183,-63
2026-09-13 19:50:06.655,1789339806.6555107,-63
2026-09-13 19:50:06.663,1789339806.663203,-55
2026-09-13 19:50:06.670,1789339806.6708953,-53
2026-09-13 19:50:06.678,1789339806.6785877,-50
2026-09-13 19:50:06.686,1789339806.6862798,-46
2026-09-13 19:50:06.693,1789339806.693972,-46
2026-09-13 19:50:06.701,1789339806.7016644,-48
2026-09-13 19:50:06.709,1789339806.7093568,-46
2026-09-13 19:50:06.717,1789339806.7170491,-43
2026-09-13 19:50:06.724,1789339806.7247415,-41
2026-09-13 19:50:06.732,1789339806.7324338,-38
2026-09-13 19:50:06.740,1789339806.7401261,-38
2026-09-13 19:50:06.747,1789339806.7478182,-38
2026-09-13 19:50:06.755,1789339806.7555106,-38
2026-09-13 19:50:06.763,1789339806.763203,-33
2026-09-13 19:50:06.770,1789339806.7708952,-31
2026-09-13 19:50:06.778,1789339806.7785876,-33
2026-09-13 19:50:06.786,1789339806.78628,-36
2026-09-13 19:50:06.793,1789339806.7939723,-33
2026-09-13 19:50:06.801,1789339806.8016646,-29
2026-09-13 19:50:06.809,1789339806.8093567,-24
2026-09-13 19:50:06.817,1789339806.817049,-24
2026-09-13 19:50:06.824,1789339806.8247414,-21
2026-09-13 19:50:06.832,1789339806.8324337,-21
2026-09-13 19:50:06.840,1789339806.840126,-26
2026-09-13 19:50:06.847,1789339806.8478184,-21
2026-09-13 19:50:06.855,1789339806.8555107,-14
2026-09-13 19:50:06.863,1789339806.863203,-16
2026-09-13 19:50:06.870,1789339806.8708951,-24
2026-09-13 19:50:06.878,1789339806.8785875,-26
2026-09-13 19:50:06.886,1789339806.8862798,-19
2026-09-13 19:50:06.893,1789339806.8939722,-14
2026-09-13 19:50:06.901,1789339806.9016645,-16
2026-09-13 19:50:06.909,1789339806.9093568,-12
2026-09-13 19:50:06.917,1789339806.9170492,-7
2026-09-13 19:50:06.924,1789339806.9247415,-9
2026-09-13 19:50:06.932,1789339806.9324336,-14
2026-09-13 19:50:06.940,1789339806.940126,-12
2026-09-13 19:50:06.947,1789339806.9478183,-4
2026-09-13 19:50:06.955,1789339806.9555106,-9
2026-09-13 19:50:06.963,1789339806.963203,-12
2026-09-13 19:50:06.970,1789339806.9708953,-7
2026-09-13 19:50:06.978,1789339806.9785876,-4
2026-09-13 19:50:06.986,1789339806.98628,-4
2026-09-13 19:50:06.993,1789339806.9939723,-4
2026-09-13 19:50:07.001,1789339807.0016644,-7
2026-09-13 19:50:07.009,1789339807.0093567,-12
2026-09-13 19:50:07.017,1789339807.017049,-16
2026-09-13 19:50:07.024,1789339807.024195,-19
2026-09-13 19:50:07.031,1789339807.0318873,-14
2026-09-13 19:50:07.039,1789339807.0395796,0
2026-09-13 19:50:07.047,1789339807.047272,16
2026-09-13 19:50:07.054,1789339807.0549643,38
2026-09-13 19:50:07.062,1789339807.0626564,50
2026-09-13 19:50:07.070,1789339807.0703487,38
2026-09-13 19:50:07.078,1789339807.078041,29
2026-09-13 19:50:07.085,1789339807.0857334,31
2026-09-13 19:50:07.093,1789339807.0934258,24
2026-09-13 19:50:07.101,1789339807.101118,2
2026-09-13 19:50:07.108,1789339807.1088104,-14
2026-09-13 19:50:07.116,1789339807.1165028,-16
2026-09-13 19:50:07.124,1789339807.1241949,-16
2026-09-13 19:50:07.131,1789339807.1318872,-14
2026-09-13 19:50:07.139,1789339807.1395795,-12
2026-09-13 19:50:07.147,1789339807.1472719,-7
2026-09-13 19:50:07.154,1789339807.1549642,-7
2026-09-13 19:50:07.162,1789339807.1626565,-9
2026-09-13 19:50:07.170,1789339807.170349,-12
2026-09-13 19:50:07.178,1789339807.1780412,26
2026-09-13 19:50:07.185,1789339807.1857333,227
2026-09-13 19:50:07.193,1789339807.1934257,630
2026-09-13 19:50:07.201,1789339807.201118,1062
2026-09-13 19:50:07.208,1789339807.2088103,1105
2026-09-13 19:50:07.216,1789339807.2165027,448
2026-09-13 19:50:07.224,1789339807.224195,-257
2026-09-13 19:50:07.231,1789339807.2318873,-242
2026-09-13 19:50:07.239,1789339807.2395797,-16
2026-09-13 19:50:07.247,1789339807.2472718,-106
2026-09-13 19:50:07.254,1789339807.254964,-155
2026-09-13 19:50:07.262,1789339807.2626565,-72
2026-09-13 19:50:07.270,1789339807.2703488,-75
2026-09-13 19:50:07.278,1789339807.2780411,-101
2026-09-13 19:50:07.285,1789339807.2857335,-72
2026-09-13 19:50:07.293,1789339807.2934258,-53
2026-09-13 19:50:07.301,1789339807.3011181,-58
2026-09-13 19:50:07.308,1789339807.3088102,-50
2026-09-13 19:50:07.316,1789339807.3165026,-36
2026-09-13 19:50:07.324,1789339807.324195,-31
2026-09-13 19:50:07.331,1789339807.3318872,-21
2026-09-13 19:50:07.339,1789339807.3395796,-9
2026-09-13 19:50:07.347,1789339807.347272,-2
2026-09-13 19:50:07.354,1789339807.3549643,7
2026-09-13 19:50:07.362,1789339807.3626566,21
2026-09-13 19:50:07.370,1789339807.3703487,31
2026-09-13 19:50:07.378,1789339807.378041,38
2026-09-13 19:50:07.385,1789339807.3857334,55
2026-09-13 19:50:07.393,1789339807.3934257,80
2026-09-13 19:50:07.401,1789339807.401118,97
2026-09-13 19:50:07.408,1789339807.4088104,116
2026-09-13 19:50:07.416,1789339807.4165027,140
2026-09-13 19:50:07.424,1789339807.424195,169
2026-09-13 19:50:07.431,1789339807.4318871,194
2026-09-13 19:50:07.439,1789339807.4395795,213
2026-09-13 19:50:07.447,1789339807.4472718,227
2026-09-13 19:50:07.454,1789339807.4549642,242
2026-09-13 19:50:07.462,1789339807.4626565,240
2026-09-13 19:50:07.470,1789339807.4703488,213
2026-09-13 19:50:07.478,1789339807.4780412,169
2026-09-13 19:50:07.485,1789339807.4857335,118
2026-09-13 19:50:07.493,1789339807.4934256,60
2026-09-13 19:50:07.501,1789339807.501118,2
2026-09-13 19:50:07.508,1789339807.5088103,-36
2026-09-13 19:50:07.516,1789339807.5165026,-63
2026-09-13 19:50:07.524,1789339807.524195,-80
2026-09-13 19:50:07.531,1789339807.5318873,-82
2026-09-13 19:50:07.539,1789339807.5395796,-77
2026-09-13 19:50:07.547,1789339807.547272,-75
2026-09-13 19:50:07.554,1789339807.5549643,-70
2026-09-13 19:50:07.562,1789339807.5626564,-55
2026-09-13 19:50:07.570,1789339807.5703487,-46
2026-09-13 19:50:07.578,1789339807.578041,-48
2026-09-13 19:50:07.585,1789339807.5851872,-38
2026-09-13 19:50:07.592,1789339807.5928795,-21
2026-09-13 19:50:07.600,1789339807.6005719,-16
2026-09-13 19:50:07.608,1789339807.6082642,-21
2026-09-13 19:50:07.615,1789339807.6159565,-26
2026-09-13 19:50:07.623,1789339807.6236486,-19
2026-09-13 19:50:07.631,1789339807.631341,-12
2026-09-13 19:50:07.639,1789339807.6390333,-16
2026-09-13 19:50:07.646,1789339807.6467257,-9
2026-09-13 19:50:07.654,1789339807.654418,4
2026-09-13 19:50:07.662,1789339807.6621103,12
2026-09-13 19:50:07.669,1789339807.6698027,9
2026-09-13 19:50:07.677,1789339807.677495,2
2026-09-13 19:50:07.685,1789339807.685187,4
2026-09-13 19:50:07.692,1789339807.6928794,16
2026-09-13 19:50:07.700,1789339807.7005718,16
2026-09-13 19:50:07.708,1789339807.708264,16
2026-09-13 19:50:07.715,1789339807.7159564,19
2026-09-13 19:50:07.723,1789339807.7236488,16
2026-09-13 19:50:07.731,1789339807.7313411,12
2026-09-13 19:50:07.739,1789339807.7390335,16
2026-09-13 19:50:07.746,1789339807.7467256,26
2026-09-13 19:50:07.754,1789339807.754418,29
2026-09-13 19:50:07.762,1789339807.7621102,21
2026-09-13 19:50:07.769,1789339807.7698026,19
2026-09-13 19:50:07.777,1789339807.777495,29
2026-09-13 19:50:07.785,1789339807.7851872,41
2026-09-13 19:50:07.792,1789339807.7928796,41
2026-09-13 19:50:07.800,1789339807.800572,36
2026-09-13 19:50:07.808,1789339807.808264,31
2026-09-13 19:50:07.815,1789339807.8159564,31
2026-09-13 19:50:07.823,1789339807.8236487,31
2026-09-13 19:50:07.831,1789339807.831341,29
2026-09-13 19:50:07.839,1789339807.8390334,36
2026-09-13 19:50:07.846,1789339807.8467257,46
2026-09-13 19:50:07.854,1789339807.854418,46
2026-09-13 19:50:07.862,1789339807.8621104,43
2026-09-13 19:50:07.869,1789339807.8698025,48
2026-09-13 19:50:07.877,1789339807.8774948,38
2026-09-13 19:50:07.885,1789339807.8851871,24
2026-09-13 19:50:07.892,1789339807.8928795,29
2026-09-13 19:50:07.900,1789339807.9005718,43
2026-09-13 19:50:07.908,1789339807.9082642,48
2026-09-13 19:50:07.915,1789339807.9159565,55
2026-09-13 19:50:07.923,1789339807.9236488,82
2026-09-13 19:50:07.931,1789339807.931341,104
2026-09-13 19:50:07.939,1789339807.9390333,99
2026-09-13 19:50:07.946,1789339807.9467256,89
2026-09-13 19:50:07.954,1789339807.954418,87
2026-09-13 19:50:07.962,1789339807.9621103,72
2026-09-13 19:50:07.969,1789339807.9698026,43
2026-09-13 19:50:07.977,1789339807.977495,19
2026-09-13 19:50:07.985,1789339807.9851873,12
2026-09-13 19:50:07.992,1789339807.9928794,24
2026-09-13 19:50:08.000,1789339808.0005717,38
2026-09-13 19:50:08.008,1789339808.008264,41
2026-09-13 19:50:08.015,1789339808.0159564,36
2026-09-13 19:50:08.023,1789339808.0236487,33
2026-09-13 19:50:08.031,1789339808.031341,29
2026-09-13 19:50:08.039,1789339808.0390334,24
2026-09-13 19:50:08.046,1789339808.0467257,63
2026-09-13 19:50:08.054,1789339808.0544178,247
2026-09-13 19:50:08.062,1789339808.0621102,637
2026-09-13 19:50:08.069,1789339808.0698025,1081
2026-09-13 19:50:08.077,1789339808.0774949,1144
2026-09-13 19:50:08.085,1789339808.0851872,460
2026-09-13 19:50:08.092,1789339808.0928795,-332
2026-09-13 19:50:08.100,1789339808.1005719,-312
2026-09-13 19:50:08.108,1789339808.1082642,9
2026-09-13 19:50:08.115,1789339808.1159565,-43
2026-09-13 19:50:08.123,1789339808.1236486,-106
2026-09-13 19:50:08.131,1789339808.131341,-9
2026-09-13 19:50:08.139,1789339808.1390333,0
2026-09-13 19:50:08.146,1789339808.1461942,-36
2026-09-13 19:50:08.153,1789339808.1538866,-12
2026-09-13 19:50:08.161,1789339808.161579,14
2026-09-13 19:50:08.169,1789339808.1692712,9
2026-09-13 19:50:08.176,1789339808.1769636,9
2026-09-13 19:50:08.184,1789339808.1846557,24
2026-09-13 19:50:08.192,1789339808.192348,43
2026-09-13 19:50:08.200,1789339808.2000403,60
2026-09-13 19:50:08.207,1789339808.2077327,65
2026-09-13 19:50:08.215,1789339808.215425,72
2026-09-13 19:50:08.223,1789339808.2231174,97
2026-09-13 19:50:08.230,1789339808.2308097,111
2026-09-13 19:50:08.238,1789339808.238502,118
2026-09-13 19:50:08.246,1789339808.2461941,128
2026-09-13 19:50:08.253,1789339808.2538865,143
2026-09-13 19:50:08.261,1789339808.2615788,169
2026-09-13 19:50:08.269,1789339808.2692711,206
2026-09-13 19:50:08.276,1789339808.2769635,227
2026-09-13 19:50:08.284,1789339808.2846558,247
2026-09-13 19:50:08.292,1789339808.2923481,286
2026-09-13 19:50:08.300,1789339808.3000405,317
2026-09-13 19:50:08.307,1789339808.3077326,341
2026-09-13 19:50:08.315,1789339808.315425,371
2026-09-13 19:50:08.323,1789339808.3231173,378
2026-09-13 19:50:08.330,1789339808.3308096,346
2026-09-13 19:50:08.338,1789339808.338502,298
2026-09-13 19:50:08.346,1789339808.3461943,230
2026-09-13 19:50:08.353,1789339808.3538866,152
2026-09-13 19:50:08.361,1789339808.361579,89
2026-09-13 19:50:08.369,1789339808.369271,21
2026-09-13 19:50:08.376,1789339808.3769634,-38
2026-09-13 19:50:08.384,1789339808.3846557,-65
2026-09-13 19:50:08.392,1789339808.392348,-84
2026-09-13 19:50:08.400,1789339808.4000404,-94
2026-09-13 19:50:08.407,1789339808.4077327,-75
2026-09-13 19:50:08.415,1789339808.415425,-70
2026-09-13 19:50:08.423,1789339808.4231174,-92
2026-09-13 19:50:08.430,1789339808.4308095,-89
2026-09-13 19:50:08.438,1789339808.4385018,-53
2026-09-13 19:50:08.446,1789339808.4461942,-41
2026-09-13 19:50:08.453,1789339808.4538865,-55
2026-09-13 19:50:08.461,1789339808.4615788,-55
2026-09-13 19:50:08.469,1789339808.4692712,-33
2026-09-13 19:50:08.476,1789339808.4769635,-14
2026-09-13 19:50:08.484,1789339808.4846559,-16
2026-09-13 19:50:08.492,1789339808.492348,-24
2026-09-13 19:50:08.500,1789339808.5000403,-21
2026-09-13 19:50:08.507,1789339808.5077326,-14
2026-09-13 19:50:08.515,1789339808.515425,2
2026-09-13 19:50:08.523,1789339808.5231173,4
2026-09-13 19:50:08.530,1789339808.5308096,-9
2026-09-13 19:50:08.538,1789339808.538502,-7
2026-09-13 19:50:08.546,1789339808.5461943,2
2026-09-13 19:50:08.553,1789339808.5538864,-2
2026-09-13 19:50:08.561,1789339808.5615788,0
2026-09-13 19:50:08.569,1789339808.569271,9
2026-09-13 19:50:08.576,1789339808.5769634,9
2026-09-13 19:50:08.584,1789339808.5846558,7
2026-09-13 19:50:08.592,1789339808.592348,12
2026-09-13 19:50:08.600,1789339808.6000404,7
2026-09-13 19:50:08.607,1789339808.6077328,0
2026-09-13 19:50:08.615,1789339808.6154249,4
2026-09-13 19:50:08.623,1789339808.6231172,12
2026-09-13 19:50:08.630,1789339808.6308095,12
2026-09-13 19:50:08.638,1789339808.638502,26
2026-09-13 19:50:08.646,1789339808.6461942,50
2026-09-13 19:50:08.653,1789339808.6538866,55
2026-09-13 19:50:08.661,1789339808.661579,48
2026-09-13 19:50:08.669,1789339808.6692712,63
2026-09-13 19:50:08.676,1789339808.6769636,80
2026-09-13 19:50:08.684,1789339808.6846557,75
2026-09-13 19:50:08.692,1789339808.692348,58
2026-09-13 19:50:08.700,1789339808.7000403,67
2026-09-13 19:50:08.707,1789339808.7072017,70
2026-09-13 19:50:08.714,1789339808.714894,31
2026-09-13 19:50:08.722,1789339808.7225864,12
2026-09-13 19:50:08.730,1789339808.7302787,26
2026-09-13 19:50:08.737,1789339808.737971,24
2026-09-13 19:50:08.745,1789339808.7456632,14
2026-09-13 19:50:08.753,1789339808.7533555,19
2026-09-13 19:50:08.761,1789339808.7610478,24
2026-09-13 19:50:08.768,1789339808.7687402,24
2026-09-13 19:50:08.776,1789339808.7764325,24
2026-09-13 19:50:08.784,1789339808.7841249,31
2026-09-13 19:50:08.791,1789339808.7918172,143
2026-09-13 19:50:08.799,1789339808.7995095,470
2026-09-13 19:50:08.807,1789339808.8072016,967
2026-09-13 19:50:08.814,1789339808.814894,1316
2026-09-13 19:50:08.822,1789339808.8225863,991
2026-09-13 19:50:08.830,1789339808.8302786,31
2026-09-13 19:50:08.837,1789339808.837971,-453
2026-09-13 19:50:08.845,1789339808.8456633,-135
2026-09-13 19:50:08.853,1789339808.8533556,26
2026-09-13 19:50:08.861,1789339808.861048,-116
2026-09-13 19:50:08.868,1789339808.86874,-87
2026-09-13 19:50:08.876,1789339808.8764324,-19
2026-09-13 19:50:08.884,1789339808.8841248,-65
2026-09-13 19:50:08.891,1789339808.891817,-67
2026-09-13 19:50:08.899,1789339808.8995094,-19
2026-09-13 19:50:08.907,1789339808.9072018,-2
2026-09-13 19:50:08.914,1789339808.914894,7
2026-09-13 19:50:08.922,1789339808.9225864,9
2026-09-13 19:50:08.930,1789339808.9302785,7
2026-09-13 19:50:08.937,1789339808.9379709,31
2026-09-13 19:50:08.945,1789339808.9456632,46
2026-09-13 19:50:08.953,1789339808.9533556,33
2026-09-13 19:50:08.961,1789339808.961048,50
2026-09-13 19:50:08.968,1789339808.9687402,80
2026-09-13 19:50:08.976,1789339808.9764326,87
2026-09-13 19:50:08.984,1789339808.984125,104
2026-09-13 19:50:08.991,1789339808.991817,126
2026-09-13 19:50:08.999,1789339808.9995093,130
2026-09-13 19:50:09.007,1789339809.0072017,155
2026-09-13 19:50:09.014,1789339809.014894,196
2026-09-13 19:50:09.022,1789339809.0225863,220
2026-09-13 19:50:09.030,1789339809.0302787,249
2026-09-13 19:50:09.037,1789339809.037971,310
2026-09-13 19:50:09.045,1789339809.0456634,351
2026-09-13 19:50:09.053,1789339809.0533555,354
2026-09-13 19:50:09.061,1789339809.0610478,346
2026-09-13 19:50:09.068,1789339809.0687401,351
2026-09-13 19:50:09.076,1789339809.0764325,320
2026-09-13 19:50:09.084,1789339809.0841248,240
2026-09-13 19:50:09.091,1789339809.0918171,147
2026-09-13 19:50:09.099,1789339809.0995095,70
2026-09-13 19:50:09.107,1789339809.1072018,4
2026-09-13 19:50:09.114,1789339809.114894,-53
2026-09-13 19:50:09.122,1789339809.1225863,-94
2026-09-13 19:50:09.130,1789339809.1302786,-109
2026-09-13 19:50:09.137,1789339809.137971,-123
2026-09-13 19:50:09.145,1789339809.1456633,-130
2026-09-13 19:50:09.153,1789339809.1533556,-123
2026-09-13 19:50:09.161,1789339809.161048,-118
2026-09-13 19:50:09.168,1789339809.1687403,-121
2026-09-13 19:50:09.176,1789339809.1764324,-109
2026-09-13 19:50:09.184,1789339809.1841247,-77
2026-09-13 19:50:09.191,1789339809.191817,-65
2026-09-13 19:50:09.199,1789339809.1995094,-80
2026-09-13 19:50:09.207,1789339809.2072017,-72
2026-09-13 19:50:09.214,1789339809.214894,-46
2026-09-13 19:50:09.222,1789339809.2225864,-38
2026-09-13 19:50:09.230,1789339809.2302787,-31
2026-09-13 19:50:09.237,1789339809.237971,-19
2026-09-13 19:50:09.245,1789339809.2456632,-29
2026-09-13 19:50:09.253,1789339809.2533555,-36
2026-09-13 19:50:09.261,1789339809.2610478,-21
2026-09-13 19:50:09.268,1789339809.2681787,-16
2026-09-13 19:50:09.275,1789339809.275871,-26
2026-09-13 19:50:09.283,1789339809.2835634,-12
2026-09-13 19:50:09.291,1789339809.2912557,-7
2026-09-13 19:50:09.298,1789339809.298948,-33
2026-09-13 19:50:09.306,1789339809.3066401,-29
2026-09-13 19:50:09.314,1789339809.3143325,2
2026-09-13 19:50:09.322,1789339809.3220248,0
2026-09-13 19:50:09.329,1789339809.3297172,-21
2026-09-13 19:50:09.337,1789339809.3374095,-31
2026-09-13 19:50:09.345,1789339809.3451018,-16
2026-09-13 19:50:09.352,1789339809.3527942,4
2026-09-13 19:50:09.360,1789339809.3604865,21
2026-09-13 19:50:09.368,1789339809.3681786,46
2026-09-13 19:50:09.375,1789339809.375871,63
2026-09-13 19:50:09.383,1789339809.3835633,50
2026-09-13 19:50:09.391,1789339809.3912556,41
2026-09-13 19:50:09.398,1789339809.398948,58
2026-09-13 19:50:09.406,1789339809.4066403,50
2026-09-13 19:50:09.414,1789339809.4143326,12
2026-09-13 19:50:09.422,1789339809.422025,-2
2026-09-13 19:50:09.429,1789339809.429717,9
2026-09-13 19:50:09.437,1789339809.4374094,4
2026-09-13 19:50:09.445,1789339809.4451017,2
2026-09-13 19:50:09.452,1789339809.452794,24
2026-09-13 19:50:09.460,1789339809.4604864,31
2026-09-13 19:50:09.468,1789339809.4681787,19
2026-09-13 19:50:09.475,1789339809.475871,16
2026-09-13 19:50:09.483,1789339809.4835634,16
2026-09-13 19:50:09.491,1789339809.4912555,21
2026-09-13 19:50:09.498,1789339809.4989479,177
2026-09-13 19:50:09.506,1789339809.5066402,582
2026-09-13 19:50:09.514,1789339809.5143325,1093
2026-09-13 19:50:09.522,1789339809.5220249,1350
2026-09-13 19:50:09.529,1789339809.5297172,882
2026-09-13 19:50:09.537,1789339809.5374095,-60
2026-09-13 19:50:09.545,1789339809.545102,-375
2026-09-13 19:50:09.552,1789339809.552794,-41
2026-09-13 19:50:09.560,1789339809.5604863,24
2026-09-13 19:50:09.568,1789339809.5681787,-113
2026-09-13 19:50:09.575,1789339809.575871,-55
2026-09-13 19:50:09.583,1789339809.5835633,-7
2026-09-13 19:50:09.591,1789339809.5912557,-55
2026-09-13 19:50:09.598,1789339809.598948,-36
2026-09-13 19:50:09.606,1789339809.6066403,14
2026-09-13 19:50:09.614,1789339809.6143324,19
2026-09-13 19:50:09.622,1789339809.6220248,21
2026-09-13 19:50:09.629,1789339809.629717,38
2026-09-13 19:50:09.637,1789339809.6374094,53
2026-09-13 19:50:09.645,1789339809.6451018,60
2026-09-13 19:50:09.652,1789339809.6527941,65
2026-09-13 19:50:09.660,1789339809.6604865,82
2026-09-13 19:50:09.668,1789339809.6681788,104
2026-09-13 19:50:09.675,1789339809.675871,106
2026-09-13 19:50:09.683,1789339809.6835632,116
2026-09-13 19:50:09.691,1789339809.6912556,138
2026-09-13 19:50:09.698,1789339809.698948,157
2026-09-13 19:50:09.706,1789339809.7066402,181
2026-09-13 19:50:09.714,1789339809.7143326,208
2026-09-13 19:50:09.722,1789339809.722025,237
2026-09-13 19:50:09.729,1789339809.7297173,266
2026-09-13 19:50:09.737,1789339809.7374094,300
2026-09-13 19:50:09.745,1789339809.7451017,334
2026-09-13 19:50:09.752,1789339809.752794,361
2026-09-13 19:50:09.760,1789339809.7604864,380
2026-09-13 19:50:09.768,1789339809.7681787,375
2026-09-13 19:50:09.775,1789339809.775871,356
2026-09-13 19:50:09.783,1789339809.7835634,329
2026-09-13 19:50:09.791,1789339809.7912557,269
2026-09-13 19:50:09.798,1789339809.798948,184
2026-09-13 19:50:09.806,1789339809.8066401,111
2026-09-13 19:50:09.814,1789339809.8143325,55
2026-09-13 19:50:09.822,1789339809.8220248,2
2026-09-13 19:50:09.829,1789339809.829196,-31
2026-09-13 19:50:09.836,1789339809.8368883,-41
2026-09-13 19:50:09.844,1789339809.8445807,-41
2026-09-13 19:50:09.852,1789339809.852273,-46
2026-09-13 19:50:09.859,1789339809.8599653,-46
2026-09-13 19:50:09.867,1789339809.8676574,-38
2026-09-13 19:50:09.875,1789339809.8753498,-26
2026-09-13 19:50:09.883,1789339809.883042,-12
2026-09-13 19:50:09.890,1789339809.8907344,0
2026-09-13 19:50:09.898,1789339809.8984268,4
2026-09-13 19:50:09.906,1789339809.906119,7
2026-09-13 19:50:09.913,1789339809.9138114,19
2026-09-13 19:50:09.921,1789339809.9215038,29
2026-09-13 19:50:09.929,1789339809.929196,38
2026-09-13 19:50:09.936,1789339809.9368882,50
2026-09-13 19:50:09.944,1789339809.9445806,50
2026-09-13 19:50:09.952,1789339809.952273,48
2026-09-13 19:50:09.959,1789339809.9599652,50
2026-09-13 19:50:09.967,1789339809.9676576,55
2026-09-13 19:50:09.975,1789339809.97535,58
2026-09-13 19:50:09.983,1789339809.9830422,63
2026-09-13 19:50:09.990,1789339809.9907343,60
2026-09-13 19:50:09.998,1789339809.9984267,63
2026-09-13 19:50:10.006,1789339810.006119,77
2026-09-13 19:50:10.013,1789339810.0138113,67
2026-09-13 19:50:10.021,1789339810.0215037,55
2026-09-13 19:50:10.029,1789339810.029196,60
2026-09-13 19:50:10.036,1789339810.0368884,55
2026-09-13 19:50:10.044,1789339810.0445807,50
2026-09-13 19:50:10.052,1789339810.0522728,67
2026-09-13 19:50:10.059,1789339810.0599651,87
2026-09-13 19:50:10.067,1789339810.0676575,104
2026-09-13 19:50:10.075,1789339810.0753498,128
2026-09-13 19:50:10.083,1789339810.0830421,130
2026-09-13 19:50:10.090,1789339810.0907345,113
2026-09-13 19:50:10.098,1789339810.0984268,104
2026-09-13 19:50:10.106,1789339810.1061192,92
2026-09-13 19:50:10.113,1789339810.1138113,77
2026-09-13 19:50:10.121,1789339810.1215036,67
2026-09-13 19:50:10.129,1789339810.129196,67
2026-09-13 19:50:10.136,1789339810.1368883,75
2026-09-13 19:50:10.144,1789339810.1445806,75
2026-09-13 19:50:10.152,1789339810.152273,65
2026-09-13 19:50:10.159,1789339810.1599653,70
2026-09-13 19:50:10.167,1789339810.1676576,82
2026-09-13 19:50:10.175,1789339810.1753497,75
2026-09-13 19:50:10.183,1789339810.183042,67
2026-09-13 19:50:10.190,1789339810.1907344,147
2026-09-13 19:50:10.198,1789339810.1984267,458
2026-09-13 19:50:10.206,1789339810.206119,977
2026-09-13 19:50:10.213,1789339810.2138114,1389
2026-09-13 19:50:10.221,1789339810.2215037,1188
2026-09-13 19:50:10.229,1789339810.229196,327
2026-09-13 19:50:10.236,1789339810.2368882,-266
2026-09-13 19:50:10.244,1789339810.2445805,-106
2026-09-13 19:50:10.252,1789339810.2522728,53
2026-09-13 19:50:10.259,1789339810.2599652,-77
2026-09-13 19:50:10.267,1789339810.2676575,-82
2026-09-13 19:50:10.275,1789339810.2753499,0
2026-09-13 19:50:10.283,1789339810.2830422,-21
2026-09-13 19:50:10.290,1789339810.2907345,-41
2026-09-13 19:50:10.298,1789339810.2984266,-7
2026-09-13 19:50:10.306,1789339810.306119,7
2026-09-13 19:50:10.313,1789339810.3138113,9
2026-09-13 19:50:10.321,1789339810.3215036,24
2026-09-13 19:50:10.329,1789339810.329196,31
2026-09-13 19:50:10.336,1789339810.3368883,33
2026-09-13 19:50:10.344,1789339810.3445807,43
2026-09-13 19:50:10.352,1789339810.352273,53
2026-09-13 19:50:10.359,1789339810.3599653,55
2026-09-13 19:50:10.367,1789339810.3676574,72
2026-09-13 19:50:10.375,1789339810.3753498,84
2026-09-13 19:50:10.383,1789339810.383042,87
2026-09-13 19:50:10.390,1789339810.3901625,104
2026-09-13 19:50:10.397,1789339810.3978548,130
2026-09-13 19:50:10.405,1789339810.4055471,145
2026-09-13 19:50:10.413,1789339810.4132395,162
2026-09-13 19:50:10.420,1789339810.4209318,194
2026-09-13 19:50:10.428,1789339810.428624,227
2026-09-13 19:50:10.436,1789339810.4363163,257
2026-09-13 19:50:10.444,1789339810.4440086,278
2026-09-13 19:50:10.451,1789339810.451701,298
2026-09-13 19:50:10.459,1789339810.4593933,310
2026-09-13 19:50:10.467,1789339810.4670856,300
2026-09-13 19:50:10.474,1789339810.474778,269
2026-09-13 19:50:10.482,1789339810.4824703,223
2026-09-13 19:50:10.490,1789339810.4901624,160
2026-09-13 19:50:10.497,1789339810.4978547,82
2026-09-13 19:50:10.505,1789339810.505547,26
2026-09-13 19:50:10.513,1789339810.5132394,-12
2026-09-13 19:50:10.520,1789339810.5209317,-41
2026-09-13 19:50:10.528,1789339810.528624,-53
2026-09-13 19:50:10.536,1789339810.5363164,-58
2026-09-13 19:50:10.544,1789339810.5440087,-65
2026-09-13 19:50:10.551,1789339810.5517008,-67
2026-09-13 19:50:10.559,1789339810.5593932,-60
2026-09-13 19:50:10.567,1789339810.5670855,-55
2026-09-13 19:50:10.574,1789339810.5747778,-48
2026-09-13 19:50:10.582,1789339810.5824702,-41
2026-09-13 19:50:10.590,1789339810.5901625,-41
2026-09-13 19:50:10.597,1789339810.5978549,-38
2026-09-13 19:50:10.605,1789339810.6055472,-26
2026-09-13 19:50:10.613,1789339810.6132393,-19
2026-09-13 19:50:10.620,1789339810.6209316,-19
2026-09-13 19:50:10.628,1789339810.628624,-16
2026-09-13 19:50:10.636,1789339810.6363163,-9
2026-09-13 19:50:10.644,1789339810.6440086,-9
2026-09-13 19:50:10.651,1789339810.651701,-14
2026-09-13 19:50:10.659,1789339810.6593933,-12
2026-09-13 19:50:10.667,1789339810.6670856,-9
2026-09-13 19:50:10.674,1789339810.6747777,-9
2026-09-13 19:50:10.682,1789339810.68247,-4
2026-09-13 19:50:10.690,1789339810.6901624,-4
2026-09-13 19:50:10.697,1789339810.6978548,-7
2026-09-13 19:50:10.705,1789339810.705547,-2
2026-09-13 19:50:10.713,1789339810.7132394,7
2026-09-13 19:50:10.720,1789339810.7209318,4
2026-09-13 19:50:10.728,1789339810.728624,-2
2026-09-13 19:50:10.736,1789339810.7363162,0
2026-09-13 19:50:10.744,1789339810.7440085,4
2026-09-13 19:50:10.751,1789339810.7517009,-4
2026-09-13 19:50:10.759,1789339810.7593932,-16
2026-09-13 19:50:10.767,1789339810.7670856,-9
2026-09-13 19:50:10.774,1789339810.774778,7
2026-09-13 19:50:10.782,1789339810.7824702,21
2026-09-13 19:50:10.790,1789339810.7901626,43
2026-09-13 19:50:10.797,1789339810.7978547,55
2026-09-13 19:50:10.805,1789339810.805547,50
2026-09-13 19:50:10.813,1789339810.8132393,48
2026-09-13 19:50:10.820,1789339810.8209317,50
2026-09-13 19:50:10.828,1789339810.828624,38
2026-09-13 19:50:10.836,1789339810.8363163,16
2026-09-13 19:50:10.844,1789339810.8440087,4
2026-09-13 19:50:10.851,1789339810.851701,7
2026-09-13 19:50:10.859,1789339810.8593931,7
2026-09-13 19:50:10.867,1789339810.8670855,4
2026-09-13 19:50:10.874,1789339810.8747778,4
2026-09-13 19:50:10.882,1789339810.8824701,9
2026-09-13 19:50:10.890,1789339810.8901625,9
2026-09-13 19:50:10.897,1789339810.8978548,4
2026-09-13 19:50:10.905,1789339810.9055471,-4
2026-09-13 19:50:10.913,1789339810.9132395,41
2026-09-13 19:50:10.920,1789339810.9209318,286
2026-09-13 19:50:10.928,1789339810.928624,756
2026-09-13 19:50:10.936,1789339810.9363163,1202
2026-09-13 19:50:10.944,1789339810.9440086,1181
2026-09-13 19:50:10.951,1789339810.95117,477
2026-09-13 19:50:10.958,1789339810.9588623,-227
2026-09-13 19:50:10.966,1789339810.9665546,-235
2026-09-13 19:50:10.974,1789339810.974247,-31
2026-09-13 19:50:10.981,1789339810.9819393,-111
2026-09-13 19:50:10.989,1789339810.9896314,-162
2026-09-13 19:50:10.997,1789339810.9973238,-89
2026-09-13 19:50:11.005,1789339811.005016,-89
2026-09-13 19:50:11.012,1789339811.0127084,-111
2026-09-13 19:50:11.020,1789339811.0204008,-80
2026-09-13 19:50:11.028,1789339811.028093,-65
2026-09-13 19:50:11.035,1789339811.0357854,-65
2026-09-13 19:50:11.043,1789339811.0434778,-50
2026-09-13 19:50:11.051,1789339811.0511699,-36
2026-09-13 19:50:11.058,1789339811.0588622,-26
2026-09-13 19:50:11.066,1789339811.0665545,-21
2026-09-13 19:50:11.074,1789339811.074247,-16
2026-09-13 19:50:11.081,1789339811.0819392,-7
2026-09-13 19:50:11.089,1789339811.0896316,2
2026-09-13 19:50:11.097,1789339811.097324,12
2026-09-13 19:50:11.105,1789339811.1050162,21
2026-09-13 19:50:11.112,1789339811.1127083,33
2026-09-13 19:50:11.120,1789339811.1204007,50
2026-09-13 19:50:11.128,1789339811.128093,67
2026-09-13 19:50:11.135,1789339811.1357853,84
2026-09-13 19:50:11.143,1789339811.1434777,106
2026-09-13 19:50:11.151,1789339811.15117,128
2026-09-13 19:50:11.158,1789339811.1588624,157
2026-09-13 19:50:11.166,1789339811.1665547,189
2026-09-13 19:50:11.174,1789339811.1742468,201
2026-09-13 19:50:11.181,1789339811.1819391,201
2026-09-13 19:50:11.189,1789339811.1896315,203
2026-09-13 19:50:11.197,1789339811.1973238,191
2026-09-13 19:50:11.205,1789339811.2050161,155
2026-09-13 19:50:11.212,1789339811.2127085,104
2026-09-13 19:50:11.220,1789339811.2204008,46
2026-09-13 19:50:11.228,1789339811.2280931,-7
2026-09-13 19:50:11.235,1789339811.2357852,-46
2026-09-13 19:50:11.243,1789339811.2434776,-77
2026-09-13 19:50:11.251,1789339811.25117,-97
2026-09-13 19:50:11.258,1789339811.2588623,-101
2026-09-13 19:50:11.266,1789339811.2665546,-101
2026-09-13 19:50:11.274,1789339811.274247,-104
2026-09-13 19:50:11.281,1789339811.2819393,-101
2026-09-13 19:50:11.289,1789339811.2896316,-92
2026-09-13 19:50:11.297,1789339811.2973237,-87
2026-09-13 19:50:11.305,1789339811.305016,-84
2026-09-13 19:50:11.312,1789339811.3127084,-77
2026-09-13 19:50:11.320,1789339811.3204007,-72
2026-09-13 19:50:11.328,1789339811.328093,-75
2026-09-13 19:50:11.335,1789339811.3357854,-72
2026-09-13 19:50:11.343,1789339811.3434777,-70
2026-09-13 19:50:11.351,1789339811.35117,-70
2026-09-13 19:50:11.358,1789339811.3588622,-70
2026-09-13 19:50:11.366,1789339811.3665545,-67
2026-09-13 19:50:11.374,1789339811.3742468,-65
2026-09-13 19:50:11.381,1789339811.3819392,-63
2026-09-13 19:50:11.389,1789339811.3896315,-63
2026-09-13 19:50:11.397,1789339811.3973238,-63
2026-09-13 19:50:11.405,1789339811.4050162,-55
2026-09-13 19:50:11.412,1789339811.4127085,-50
2026-09-13 19:50:11.420,1789339811.4204006,-55
2026-09-13 19:50:11.428,1789339811.428093,-50
2026-09-13 19:50:11.435,1789339811.4357853,-43
2026-09-13 19:50:11.443,1789339811.4434776,-48
2026-09-13 19:50:11.451,1789339811.45117,-50
2026-09-13 19:50:11.458,1789339811.4588623,-46
2026-09-13 19:50:11.466,1789339811.4665546,-43
2026-09-13 19:50:11.474,1789339811.474247,-46
2026-09-13 19:50:11.481,1789339811.4819393,-41
2026-09-13 19:50:11.489,1789339811.4896314,-36
2026-09-13 19:50:11.497,1789339811.4973238,-36
2026-09-13 19:50:11.505,1789339811.505016,-38
2026-09-13 19:50:11.512,1789339811.5121772,-41
2026-09-13 19:50:11.519,1789339811.5198696,-36
2026-09-13 19:50:11.527,1789339811.527562,-38
2026-09-13 19:50:11.535,1789339811.5352542,-41
2026-09-13 19:50:11.542,1789339811.5429466,-36
2026-09-13 19:50:11.550,1789339811.5506387,-36
2026-09-13 19:50:11.558,1789339811.558331,-46
2026-09-13 19:50:11.566,1789339811.5660233,-46
2026-09-13 19:50:11.573,1789339811.5737157,-38
2026-09-13 19:50:11.581,1789339811.581408,-43
2026-09-13 19:50:11.589,1789339811.5891004,-41
2026-09-13 19:50:11.596,1789339811.5967927,-21
2026-09-13 19:50:11.604,1789339811.604485,-2
2026-09-13 19:50:11.612,1789339811.6121771,9
2026-09-13 19:50:11.619,1789339811.6198695,14
2026-09-13 19:50:11.627,1789339811.6275618,4
2026-09-13 19:50:11.635,1789339811.6352541,-2
2026-09-13 19:50:11.642,1789339811.6429465,0
2026-09-13 19:50:11.650,1789339811.6506388,-9
2026-09-13 19:50:11.658,1789339811.6583312,-33
2026-09-13 19:50:11.666,1789339811.6660235,-46
2026-09-13 19:50:11.673,1789339811.6737156,-46
2026-09-13 19:50:11.681,1789339811.681408,-46
2026-09-13 19:50:11.689,1789339811.6891003,-50
2026-09-13 19:50:11.696,1789339811.6967926,-48
2026-09-13 19:50:11.704,1789339811.704485,-43
2026-09-13 19:50:11.712,1789339811.7121773,-46
2026-09-13 19:50:11.719,1789339811.7198696,-48
2026-09-13 19:50:11.727,1789339811.727562,-50
2026-09-13 19:50:11.735,1789339811.735254,0
2026-09-13 19:50:11.742,1789339811.7429464,240
2026-09-13 19:50:11.750,1789339811.7506387,683
2026-09-13 19:50:11.758,1789339811.758331,1101
2026-09-13 19:50:11.766,1789339811.7660234,1071
2026-09-13 19:50:11.773,1789339811.7737157,361
2026-09-13 19:50:11.781,1789339811.781408,-327
2026-09-13 19:50:11.789,1789339811.7891004,-288
2026-09-13 19:50:11.796,1789339811.7967925,-75
2026-09-13 19:50:11.804,1789339811.8044848,-164
2026-09-13 19:50:11.812,1789339811.8121772,-208
2026-09-13 19:50:11.819,1789339811.8198695,-133
2026-09-13 19:50:11.827,1789339811.8275619,-133
2026-09-13 19:50:11.835,1789339811.8352542,-152
2026-09-13 19:50:11.842,1789339811.8429465,-126
2026-09-13 19:50:11.850,1789339811.8506389,-109
2026-09-13 19:50:11.858,1789339811.858331,-109
2026-09-13 19:50:11.866,1789339811.8660233,-99
2026-09-13 19:50:11.873,1789339811.8737156,-84
2026-09-13 19:50:11.881,1789339811.881408,-75
2026-09-13 19:50:11.889,1789339811.8891003,-67
2026-09-13 19:50:11.896,1789339811.8967927,-63
2026-09-13 19:50:11.904,1789339811.904485,-55
2026-09-13 19:50:11.912,1789339811.9121773,-48
2026-09-13 19:50:11.919,1789339811.9198694,-36
2026-09-13 19:50:11.927,1789339811.9275618,-16
2026-09-13 19:50:11.935,1789339811.935254,-4
2026-09-13 19:50:11.942,1789339811.9429464,9
2026-09-13 19:50:11.950,1789339811.9506388,31
2026-09-13 19:50:11.958,1789339811.958331,53
2026-09-13 19:50:11.966,1789339811.9660234,72
2026-09-13 19:50:11.973,1789339811.9737158,99
2026-09-13 19:50:11.981,1789339811.9814079,128
2026-09-13 19:50:11.989,1789339811.9891002,155
2026-09-13 19:50:11.996,1789339811.9967926,174
2026-09-13 19:50:12.004,1789339812.004485,184
2026-09-13 19:50:12.012,1789339812.0121772,184
2026-09-13 19:50:12.019,1789339812.0198696,181
2026-09-13 19:50:12.027,1789339812.027562,152
2026-09-13 19:50:12.035,1789339812.0352542,94
2026-09-13 19:50:12.042,1789339812.0429466,31
2026-09-13 19:50:12.050,1789339812.0506387,-19
2026-09-13 19:50:12.058,1789339812.058331,-67
2026-09-13 19:50:12.066,1789339812.0660233,-101
2026-09-13 19:50:12.073,1789339812.073154,-116
2026-09-13 19:50:12.080,1789339812.0808463,-123
2026-09-13 19:50:12.088,1789339812.0885386,-133
2026-09-13 19:50:12.096,1789339812.096231,-133
2026-09-13 19:50:12.103,1789339812.1039233,-123
2026-09-13 19:50:12.111,1789339812.1116154,-109
2026-09-13 19:50:12.119,1789339812.1193078,-101
2026-09-13 19:50:12.127,1789339812.127,-104
2026-09-13 19:50:12.134,1789339812.1346924,-99
2026-09-13 19:50:12.142,1789339812.1423848,-94
2026-09-13 19:50:12.150,1789339812.150077,-94
2026-09-13 19:50:12.157,1789339812.1577694,-80
2026-09-13 19:50:12.165,1789339812.1654618,-65
2026-09-13 19:50:12.173,1789339812.1731539,-72
2026-09-13 19:50:12.180,1789339812.1808462,-77
2026-09-13 19:50:12.188,1789339812.1885386,-72
2026-09-13 19:50:12.196,1789339812.196231,-67
2026-09-13 19:50:12.203,1789339812.2039232,-67
2026-09-13 19:50:12.211,1789339812.2116156,-67
2026-09-13 19:50:12.219,1789339812.219308,-65
2026-09-13 19:50:12.227,1789339812.2270002,-63
2026-09-13 19:50:12.234,1789339812.2346923,-58
2026-09-13 19:50:12.242,1789339812.2423847,-55
2026-09-13 19:50:12.250,1789339812.250077,-55
2026-09-13 19:50:12.257,1789339812.2577693,-58
2026-09-13 19:50:12.265,1789339812.2654617,-60
2026-09-13 19:50:12.273,1789339812.273154,-60
2026-09-13 19:50:12.280,1789339812.2808464,-53
2026-09-13 19:50:12.288,1789339812.2885387,-53
2026-09-13 19:50:12.296,1789339812.2962308,-58
2026-09-13 19:50:12.303,1789339812.3039231,-48
2026-09-13 19:50:12.311,1789339812.3116155,-38
2026-09-13 19:50:12.319,1789339812.3193078,-43
2026-09-13 19:50:12.327,1789339812.3270001,-53
2026-09-13 19:50:12.334,1789339812.3346925,-50
2026-09-13 19:50:12.342,1789339812.3423848,-46
2026-09-13 19:50:12.350,1789339812.3500772,-46
2026-09-13 19:50:12.357,1789339812.3577693,-43
2026-09-13 19:50:12.365,1789339812.3654616,-43
2026-09-13 19:50:12.373,1789339812.373154,-41
2026-09-13 19:50:12.380,1789339812.3808463,-33
2026-09-13 19:50:12.388,1789339812.3885386,-31
2026-09-13 19:50:12.396,1789339812.396231,-36
2026-09-13 19:50:12.403,1789339812.4039233,-36
2026-09-13 19:50:12.411,1789339812.4116156,-29
2026-09-13 19:50:12.419,1789339812.4193077,-31
2026-09-13 19:50:12.427,1789339812.427,-33
2026-09-13 19:50:12.434,1789339812.4346924,-31
2026-09-13 19:50:12.442,1789339812.4423847,-31
2026-09-13 19:50:12.450,1789339812.450077,-31
2026-09-13 19:50:12.457,1789339812.4577694,-33
2026-09-13 19:50:12.465,1789339812.4654617,-38
2026-09-13 19:50:12.473,1789339812.473154,-24
2026-09-13 19:50:12.480,1789339812.4808462,-2
2026-09-13 19:50:12.488,1789339812.4885385,7
2026-09-13 19:50:12.496,1789339812.4962308,29
2026-09-13 19:50:12.503,1789339812.5039232,41
2026-09-13 19:50:12.511,1789339812.5116155,26
2026-09-13 19:50:12.519,1789339812.5193079,12
2026-09-13 19:50:12.527,1789339812.5270002,12
2026-09-13 19:50:12.534,1789339812.5346925,9
2026-09-13 19:50:12.542,1789339812.5423846,-12
2026-09-13 19:50:12.550,1789339812.550077,-31
2026-09-13 19:50:12.557,1789339812.5577693,-31
2026-09-13 19:50:12.565,1789339812.5654616,-24
2026-09-13 19:50:12.573,1789339812.573154,-26
2026-09-13 19:50:12.580,1789339812.5808463,-26
2026-09-13 19:50:12.588,1789339812.5885386,-21
2026-09-13 19:50:12.596,1789339812.596231,-26
2026-09-13 19:50:12.603,1789339812.6039233,-36
2026-09-13 19:50:12.611,1789339812.6116154,-33
2026-09-13 19:50:12.619,1789339812.6193078,0
2026-09-13 19:50:12.627,1789339812.627,172
2026-09-13 19:50:12.634,1789339812.6341612,550
2026-09-13 19:50:12.641,1789339812.6418536,991
2026-09-13 19:50:12.649,1789339812.649546,1125
2026-09-13 19:50:12.657,1789339812.6572382,569
2026-09-13 19:50:12.664,1789339812.6649306,-203
2026-09-13 19:50:12.672,1789339812.6726227,-305
2026-09-13 19:50:12.680,1789339812.680315,-50
2026-09-13 19:50:12.688,1789339812.6880074,-101
2026-09-13 19:50:12.695,1789339812.6956997,-181
2026-09-13 19:50:12.703,1789339812.703392,-99
2026-09-13 19:50:12.711,1789339812.7110844,-87
2026-09-13 19:50:12.718,1789339812.7187767,-116
2026-09-13 19:50:12.726,1789339812.726469,-82
2026-09-13 19:50:12.734,1789339812.7341611,-65
2026-09-13 19:50:12.741,1789339812.7418535,-77
2026-09-13 19:50:12.749,1789339812.7495458,-63
2026-09-13 19:50:12.757,1789339812.7572381,-43
2026-09-13 19:50:12.764,1789339812.7649305,-38
2026-09-13 19:50:12.772,1789339812.7726228,-33
2026-09-13 19:50:12.780,1789339812.7803152,-21
2026-09-13 19:50:12.788,1789339812.7880075,-12
2026-09-13 19:50:12.795,1789339812.7956996,-4
2026-09-13 19:50:12.803,1789339812.803392,7
2026-09-13 19:50:12.811,1789339812.8110843,24
2026-09-13 19:50:12.818,1789339812.8187766,33
2026-09-13 19:50:12.826,1789339812.826469,43
2026-09-13 19:50:12.834,1789339812.8341613,63
2026-09-13 19:50:12.841,1789339812.8418536,84
2026-09-13 19:50:12.849,1789339812.849546,106
2026-09-13 19:50:12.857,1789339812.857238,130
2026-09-13 19:50:12.864,1789339812.8649304,162
2026-09-13 19:50:12.872,1789339812.8726227,189
2026-09-13 19:50:12.880,1789339812.880315,203
2026-09-13 19:50:12.888,1789339812.8880074,213
2026-09-13 19:50:12.895,1789339812.8956997,215
2026-09-13 19:50:12.903,1789339812.903392,213
2026-09-13 19:50:12.911,1789339812.9110844,194
2026-09-13 19:50:12.918,1789339812.9187765,145
2026-09-13 19:50:12.926,1789339812.9264688,89
2026-09-13 19:50:12.934,1789339812.9341612,41
2026-09-13 19:50:12.941,1789339812.9418535,-4
2026-09-13 19:50:12.949,1789339812.9495459,-46
2026-09-13 19:50:12.957,1789339812.9572382,-77
2026-09-13 19:50:12.964,1789339812.9649305,-84
2026-09-13 19:50:12.972,1789339812.9726229,-80
2026-09-13 19:50:12.980,1789339812.980315,-82
2026-09-13 19:50:12.988,1789339812.9880073,-82
2026-09-13 19:50:12.995,1789339812.9956996,-75
2026-09-13 19:50:13.003,1789339813.003392,-63
2026-09-13 19:50:13.011,1789339813.0110843,-58
2026-09-13 19:50:13.018,1789339813.0187767,-53
2026-09-13 19:50:13.026,1789339813.026469,-50
2026-09-13 19:50:13.034,1789339813.0341613,-46
2026-09-13 19:50:13.041,1789339813.0418534,-38
2026-09-13 19:50:13.049,1789339813.0495458,-33
2026-09-13 19:50:13.057,1789339813.057238,-29
2026-09-13 19:50:13.064,1789339813.0649304,-26
2026-09-13 19:50:13.072,1789339813.0726228,-24
2026-09-13 19:50:13.080,1789339813.080315,-19
2026-09-13 19:50:13.088,1789339813.0880075,-16
2026-09-13 19:50:13.095,1789339813.0956998,-12
2026-09-13 19:50:13.103,1789339813.103392,-9
2026-09-13 19:50:13.111,1789339813.1110842,-9
2026-09-13 19:50:13.118,1789339813.1187766,-12
2026-09-13 19:50:13.126,1789339813.126469,-4
2026-09-13 19:50:13.134,1789339813.1341612,0
2026-09-13 19:50:13.141,1789339813.1418536,0
2026-09-13 19:50:13.149,1789339813.149546,0
2026-09-13 19:50:13.157,1789339813.1572382,4
2026-09-13 19:50:13.164,1789339813.1649306,7
2026-09-13 19:50:13.172,1789339813.1726227,4
2026-09-13 19:50:13.180,1789339813.180315,7
2026-09-13 19:50:13.188,1789339813.1880074,16
2026-09-13 19:50:13.195,1789339813.1951687,24
2026-09-13 19:50:13.202,1789339813.202861,19
2026-09-13 19:50:13.210,1789339813.2105534,14
2026-09-13 19:50:13.218,1789339813.2182457,19
2026-09-13 19:50:13.225,1789339813.225938,24
2026-09-13 19:50:13.233,1789339813.2336302,26
2026-09-13 19:50:13.241,1789339813.2413225,31
2026-09-13 19:50:13.249,1789339813.2490149,33
2026-09-13 19:50:13.256,1789339813.2567072,31
2026-09-13 19:50:13.264,1789339813.2643995,29
2026-09-13 19:50:13.272,1789339813.2720919,29
2026-09-13 19:50:13.279,1789339813.2797842,41
2026-09-13 19:50:13.287,1789339813.2874765,48
2026-09-13 19:50:13.295,1789339813.2951686,38
2026-09-13 19:50:13.302,1789339813.302861,36
2026-09-13 19:50:13.310,1789339813.3105533,46
2026-09-13 19:50:13.318,1789339813.3182456,48
2026-09-13 19:50:13.325,1789339813.325938,43
2026-09-13 19:50:13.333,1789339813.3336303,41
2026-09-13 19:50:13.341,1789339813.3413227,46
2026-09-13 19:50:13.349,1789339813.349015,43
2026-09-13 19:50:13.356,1789339813.356707,33
2026-09-13 19:50:13.364,1789339813.3643994,43
2026-09-13 19:50:13.372,1789339813.3720918,67
2026-09-13 19:50:13.379,1789339813.379784,84
2026-09-13 19:50:13.387,1789339813.3874764,101
2026-09-13 19:50:13.395,1789339813.3951688,116
2026-09-13 19:50:13.402,1789339813.402861,111
2026-09-13 19:50:13.410,1789339813.4105535,92
2026-09-13 19:50:13.418,1789339813.4182456,89
2026-09-13 19:50:13.425,1789339813.425938,92
2026-09-13 19:50:13.433,1789339813.4336302,67
2026-09-13 19:50:13.441,1789339813.4413226,46
2026-09-13 19:50:13.449,1789339813.449015,55
2026-09-13 19:50:13.456,1789339813.4567072,70
2026-09-13 19:50:13.464,1789339813.4643996,60
2026-09-13 19:50:13.472,1789339813.472092,58
2026-09-13 19:50:13.479,1789339813.479784,67
2026-09-13 19:50:13.487,1789339813.4874763,67
2026-09-13 19:50:13.495,1789339813.4951687,63
2026-09-13 19:50:13.502,1789339813.502861,63
2026-09-13 19:50:13.510,1789339813.5105534,72
2026-09-13 19:50:13.518,1789339813.5182457,194
2026-09-13 19:50:13.525,1789339813.525938,516
2026-09-13 19:50:13.533,1789339813.5336304,953
2026-09-13 19:50:13.541,1789339813.5413225,1210
2026-09-13 19:50:13.549,1789339813.5490148,812
2026-09-13 19:50:13.556,1789339813.5567071,-14
2026-09-13 19:50:13.564,1789339813.5643995,-266
2026-09-13 19:50:13.572,1789339813.5720918,24
2026-09-13 19:50:13.579,1789339813.5797842,46
2026-09-13 19:50:13.587,1789339813.5874765,-60
2026-09-13 19:50:13.595,1789339813.5951688,12
2026-09-13 19:50:13.602,1789339813.602861,46
2026-09-13 19:50:13.610,1789339813.6105533,-2
2026-09-13 19:50:13.618,1789339813.6182456,14
2026-09-13 19:50:13.625,1789339813.625938,50
2026-09-13 19:50:13.633,1789339813.6336303,53
2026-09-13 19:50:13.641,1789339813.6413226,63
2026-09-13 19:50:13.649,1789339813.649015,80
2026-09-13 19:50:13.656,1789339813.6567073,77
2026-09-13 19:50:13.664,1789339813.6643994,77
2026-09-13 19:50:13.672,1789339813.6720917,92
2026-09-13 19:50:13.679,1789339813.679784,111
2026-09-13 19:50:13.687,1789339813.6874764,118
2026-09-13 19:50:13.695,1789339813.6951687,130
2026-09-13 19:50:13.702,1789339813.702861,145
2026-09-13 19:50:13.710,1789339813.7105534,150
2026-09-13 19:50:13.718,1789339813.7182457,167
2026-09-13 19:50:13.725,1789339813.725938,198
2026-09-13 19:50:13.733,1789339813.7336302,213
2026-09-13 19:50:13.741,1789339813.7413225,232
2026-09-13 19:50:13.749,1789339813.7490149,269
2026-09-13 19:50:13.756,1789339813.756176,298
2026-09-13 19:50:13.763,1789339813.7638683,315
2026-09-13 19:50:13.771,1789339813.7715607,337
2026-09-13 19:50:13.779,1789339813.779253,354
2026-09-13 19:50:13.786,1789339813.7869453,358
2026-09-13 19:50:13.794,1789339813.7946374,349
2026-09-13 19:50:13.802,1789339813.8023298,317
2026-09-13 19:50:13.810,1789339813.810022,276
2026-09-13 19:50:13.817,1789339813.8177145,225
2026-09-13 19:50:13.825,1789339813.8254068,160
2026-09-13 19:50:13.833,1789339813.8330991,92
2026-09-13 19:50:13.840,1789339813.8407915,48
2026-09-13 19:50:13.848,1789339813.8484838,19
2026-09-13 19:50:13.856,1789339813.856176,-7
2026-09-13 19:50:13.863,1789339813.8638682,-21
2026-09-13 19:50:13.871,1789339813.8715606,-14
2026-09-13 19:50:13.879,1789339813.879253,-4
2026-09-13 19:50:13.886,1789339813.8869452,-4
2026-09-13 19:50:13.894,1789339813.8946376,2
2026-09-13 19:50:13.902,1789339813.90233,19
2026-09-13 19:50:13.910,1789339813.9100223,31
2026-09-13 19:50:13.917,1789339813.9177144,24
2026-09-13 19:50:13.925,1789339813.9254067,24
2026-09-13 19:50:13.933,1789339813.933099,43
2026-09-13 19:50:13.940,1789339813.9407914,46
2026-09-13 19:50:13.948,1789339813.9484837,38
2026-09-13 19:50:13.956,1789339813.956176,41
2026-09-13 19:50:13.963,1789339813.9638684,53
2026-09-13 19:50:13.971,1789339813.9715607,55
2026-09-13 19:50:13.979,1789339813.9792528,53
2026-09-13 19:50:13.986,1789339813.9869452,55
2026-09-13 19:50:13.994,1789339813.9946375,55
2026-09-13 19:50:14.002,1789339814.0023298,50
2026-09-13 19:50:14.010,1789339814.0100222,48
2026-09-13 19:50:14.017,1789339814.0177145,50
2026-09-13 19:50:14.025,1789339814.0254068,48
2026-09-13 19:50:14.033,1789339814.0330992,53
2026-09-13 19:50:14.040,1789339814.0407913,60
2026-09-13 19:50:14.048,1789339814.0484836,63
2026-09-13 19:50:14.056,1789339814.056176,63
2026-09-13 19:50:14.063,1789339814.0638683,58
2026-09-13 19:50:14.071,1789339814.0715606,50
2026-09-13 19:50:14.079,1789339814.079253,53
2026-09-13 19:50:14.086,1789339814.0869453,63
2026-09-13 19:50:14.094,1789339814.0946376,67
2026-09-13 19:50:14.102,1789339814.1023297,67
2026-09-13 19:50:14.110,1789339814.110022,63
2026-09-13 19:50:14.117,1789339814.1177144,53
2026-09-13 19:50:14.125,1789339814.1254067,58
2026-09-13 19:50:14.133,1789339814.133099,65
2026-09-13 19:50:14.140,1789339814.1407914,55
2026-09-13 19:50:14.148,1789339814.1484838,43
2026-09-13 19:50:14.156,1789339814.156176,58
2026-09-13 19:50:14.163,1789339814.1638682,80
2026-09-13 19:50:14.171,1789339814.1715605,89
2026-09-13 19:50:14.179,1789339814.1792529,116
2026-09-13 19:50:14.186,1789339814.1869452,138
2026-09-13 19:50:14.194,1789339814.1946375,121
2026-09-13 19:50:14.202,1789339814.2023299,101
2026-09-13 19:50:14.210,1789339814.2100222,94
2026-09-13 19:50:14.217,1789339814.2177145,77
2026-09-13 19:50:14.225,1789339814.2254066,65
2026-09-13 19:50:14.233,1789339814.233099,55
2026-09-13 19:50:14.240,1789339814.2407913,43
2026-09-13 19:50:14.248,1789339814.2484837,46
2026-09-13 19:50:14.256,1789339814.256176,55
2026-09-13 19:50:14.263,1789339814.2638683,50
2026-09-13 19:50:14.271,1789339814.2715607,48
2026-09-13 19:50:14.279,1789339814.279253,53
2026-09-13 19:50:14.286,1789339814.2869453,48
2026-09-13 19:50:14.294,1789339814.2946374,43
2026-09-13 19:50:14.302,1789339814.3023298,67
2026-09-13 19:50:14.310,1789339814.310022,196
2026-09-13 19:50:14.317,1789339814.3171527,535
2026-09-13 19:50:14.324,1789339814.324845,994
2026-09-13 19:50:14.332,1789339814.3325374,1202
2026-09-13 19:50:14.340,1789339814.3402297,693
2026-09-13 19:50:14.347,1789339814.347922,-194
2026-09-13 19:50:14.355,1789339814.3556142,-385
2026-09-13 19:50:14.363,1789339814.3633065,-26
2026-09-13 19:50:14.370,1789339814.3709989,0
2026-09-13 19:50:14.378,1789339814.3786912,-111
2026-09-13 19:50:14.386,1789339814.3863835,-26
2026-09-13 19:50:14.394,1789339814.3940759,14
2026-09-13 19:50:14.401,1789339814.4017682,-21
2026-09-13 19:50:14.409,1789339814.4094605,-7
2026-09-13 19:50:14.417,1789339814.4171526,9
2026-09-13 19:50:14.424,1789339814.424845,7
2026-09-13 19:50:14.432,1789339814.4325373,21
2026-09-13 19:50:14.440,1789339814.4402297,38
2026-09-13 19:50:14.447,1789339814.447922,48
2026-09-13 19:50:14.455,1789339814.4556143,60
2026-09-13 19:50:14.463,1789339814.4633067,77
2026-09-13 19:50:14.470,1789339814.470999,84
2026-09-13 19:50:14.478,1789339814.478691,84
2026-09-13 19:50:14.486,1789339814.4863834,94
2026-09-13 19:50:14.494,1789339814.4940758,123
2026-09-13 19:50:14.501,1789339814.501768,133
2026-09-13 19:50:14.509,1789339814.5094604,128
2026-09-13 19:50:14.517,1789339814.5171528,147
2026-09-13 19:50:14.524,1789339814.5248451,191
2026-09-13 19:50:14.532,1789339814.5325375,230
2026-09-13 19:50:14.540,1789339814.5402296,254
2026-09-13 19:50:14.547,1789339814.547922,276
2026-09-13 19:50:14.555,1789339814.5556142,298
2026-09-13 19:50:14.563,1789339814.5633066,329
2026-09-13 19:50:14.570,1789339814.570999,361
2026-09-13 19:50:14.578,1789339814.5786912,371
2026-09-13 19:50:14.586,1789339814.5863836,341
2026-09-13 19:50:14.594,1789339814.594076,288
2026-09-13 19:50:14.601,1789339814.601768,220
2026-09-13 19:50:14.609,1789339814.6094604,135
2026-09-13 19:50:14.617,1789339814.6171527,55
2026-09-13 19:50:14.624,1789339814.624845,-12
2026-09-13 19:50:14.632,1789339814.6325374,-72
2026-09-13 19:50:14.640,1789339814.6402297,-94
2026-09-13 19:50:14.647,1789339814.647922,-94
2026-09-13 19:50:14.655,1789339814.6556144,-109
2026-09-13 19:50:14.663,1789339814.6633065,-113
2026-09-13 19:50:14.670,1789339814.6709988,-104
2026-09-13 19:50:14.678,1789339814.6786911,-109
2026-09-13 19:50:14.686,1789339814.6863835,-109
2026-09-13 19:50:14.694,1789339814.6940758,-87
2026-09-13 19:50:14.701,1789339814.7017682,-72
2026-09-13 19:50:14.709,1789339814.7094605,-72
2026-09-13 19:50:14.717,1789339814.7171528,-63
2026-09-13 19:50:14.724,1789339814.724845,-48
2026-09-13 19:50:14.732,1789339814.7325373,-48
2026-09-13 19:50:14.740,1789339814.7402296,-48
2026-09-13 19:50:14.747,1789339814.747922,-33
2026-09-13 19:50:14.755,1789339814.7556143,-36
2026-09-13 19:50:14.763,1789339814.7633066,-50
2026-09-13 19:50:14.770,1789339814.770999,-43
2026-09-13 19:50:14.778,1789339814.7786913,-26
2026-09-13 19:50:14.786,1789339814.7863834,-14
2026-09-13 19:50:14.794,1789339814.7940757,-19
2026-09-13 19:50:14.801,1789339814.801768,-24
2026-09-13 19:50:14.809,1789339814.8094604,-24
2026-09-13 19:50:14.817,1789339814.8171527,-31
2026-09-13 19:50:14.824,1789339814.824845,-33
2026-09-13 19:50:14.832,1789339814.8325374,-19
2026-09-13 19:50:14.840,1789339814.8402297,-2
2026-09-13 19:50:14.847,1789339814.847922,-7
2026-09-13 19:50:14.855,1789339814.8556142,-19
2026-09-13 19:50:14.863,1789339814.8633065,-14
2026-09-13 19:50:14.870,1789339814.8709989,-21
2026-09-13 19:50:14.878,1789339814.87816,-21
2026-09-13 19:50:14.885,1789339814.8858523,0
2026-09-13 19:50:14.893,1789339814.8935447,12
2026-09-13 19:50:14.901,1789339814.901237,29
2026-09-13 19:50:14.908,1789339814.9089293,65
2026-09-13 19:50:14.916,1789339814.9166214,77
2026-09-13 19:50:14.924,1789339814.9243138,53
2026-09-13 19:50:14.932,1789339814.9320061,41
2026-09-13 19:50:14.939,1789339814.9396985,48
2026-09-13 19:50:14.947,1789339814.9473908,33
2026-09-13 19:50:14.955,1789339814.9550831,-7
2026-09-13 19:50:14.962,1789339814.9627755,-16
2026-09-13 19:50:14.970,1789339814.9704678,9
2026-09-13 19:50:14.978,1789339814.97816,19
2026-09-13 19:50:14.985,1789339814.9858522,9
2026-09-13 19:50:14.993,1789339814.9935446,12
2026-09-13 19:50:15.001,1789339815.001237,21
2026-09-13 19:50:15.008,1789339815.0089293,26
2026-09-13 19:50:15.016,1789339815.0166216,16
2026-09-13 19:50:15.024,1789339815.024314,7
2026-09-13 19:50:15.032,1789339815.0320063,101
2026-09-13 19:50:15.039,1789339815.0396984,421
2026-09-13 19:50:15.047,1789339815.0473907,928
2026-09-13 19:50:15.055,1789339815.055083,1319
2026-09-13 19:50:15.062,1789339815.0627754,1037
2026-09-13 19:50:15.070,1789339815.0704677,65
2026-09-13 19:50:15.078,1789339815.07816,-465
2026-09-13 19:50:15.085,1789339815.0858524,-140
2026-09-13 19:50:15.093,1789339815.0935447,38
2026-09-13 19:50:15.101,1789339815.1012368,-126
2026-09-13 19:50:15.108,1789339815.1089292,-99
2026-09-13 19:50:15.116,1789339815.1166215,-4
2026-09-13 19:50:15.124,1789339815.1243138,-41
2026-09-13 19:50:15.132,1789339815.1320062,-58
2026-09-13 19:50:15.139,1789339815.1396985,-16
2026-09-13 19:50:15.147,1789339815.1473908,-7
2026-09-13 19:50:15.155,1789339815.1550832,-14
2026-09-13 19:50:15.162,1789339815.1627753,7
2026-09-13 19:50:15.170,1789339815.1704676,31
2026-09-13 19:50:15.178,1789339815.17816,26
2026-09-13 19:50:15.185,1789339815.1858523,38
2026-09-13 19:50:15.193,1789339815.1935446,63
2026-09-13 19:50:15.201,1789339815.201237,58
2026-09-13 19:50:15.208,1789339815.2089293,58
2026-09-13 19:50:15.216,1789339815.2166216,77
2026-09-13 19:50:15.224,1789339815.2243137,99
2026-09-13 19:50:15.232,1789339815.232006,118
2026-09-13 19:50:15.239,1789339815.2396984,140
2026-09-13 19:50:15.247,1789339815.2473907,160
2026-09-13 19:50:15.255,1789339815.255083,189
2026-09-13 19:50:15.262,1789339815.2627754,223
2026-09-13 19:50:15.270,1789339815.2704678,252
2026-09-13 19:50:15.278,1789339815.27816,288
2026-09-13 19:50:15.285,1789339815.2858522,332
2026-09-13 19:50:15.293,1789339815.2935445,354
2026-09-13 19:50:15.301,1789339815.3012369,351
2026-09-13 19:50:15.308,1789339815.3089292,332
2026-09-13 19:50:15.316,1789339815.3166215,293
2026-09-13 19:50:15.324,1789339815.3243139,223
2026-09-13 19:50:15.332,1789339815.3320062,138
2026-09-13 19:50:15.339,1789339815.3396986,63
2026-09-13 19:50:15.347,1789339815.3473907,4
2026-09-13 19:50:15.355,1789339815.355083,-43
2026-09-13 19:50:15.362,1789339815.3627753,-82
2026-09-13 19:50:15.370,1789339815.3704677,-99
2026-09-13 19:50:15.378,1789339815.37816,-97
2026-09-13 19:50:15.385,1789339815.3858523,-104
2026-09-13 19:50:15.393,1789339815.3935447,-118
2026-09-13 19:50:15.401,1789339815.401237,-109
2026-09-13 19:50:15.408,1789339815.4089293,-89
2026-09-13 19:50:15.416,1789339815.4166214,-84
2026-09-13 19:50:15.424,1789339815.4243138,-80
2026-09-13 19:50:15.432,1789339815.4320061,-70
2026-09-13 19:50:15.439,1789339815.439137,-58
2026-09-13 19:50:15.446,1789339815.4468293,-41
2026-09-13 19:50:15.454,1789339815.4545217,-26
2026-09-13 19:50:15.462,1789339815.462214,-29
2026-09-13 19:50:15.469,1789339815.4699063,-29
2026-09-13 19:50:15.477,1789339815.4775984,-24
2026-09-13 19:50:15.485,1789339815.4852908,-16
2026-09-13 19:50:15.492,1789339815.492983,-14
2026-09-13 19:50:15.500,1789339815.5006754,-16
2026-09-13 19:50:15.508,1789339815.5083678,-21
2026-09-13 19:50:15.516,1789339815.51606,-9
2026-09-13 19:50:15.523,1789339815.5237525,4
2026-09-13 19:50:15.531,1789339815.5314448,0
2026-09-13 19:50:15.539,1789339815.539137,-12
2026-09-13 19:50:15.546,1789339815.5468292,-4
2026-09-13 19:50:15.554,1789339815.5545216,4
2026-09-13 19:50:15.562,1789339815.562214,-2
2026-09-13 19:50:15.569,1789339815.5699062,-14
2026-09-13 19:50:15.577,1789339815.5775986,-21
2026-09-13 19:50:15.585,1789339815.585291,-12
2026-09-13 19:50:15.592,1789339815.5929832,24
2026-09-13 19:50:15.600,1789339815.6006753,46
2026-09-13 19:50:15.608,1789339815.6083677,41
2026-09-13 19:50:15.616,1789339815.61606,55
2026-09-13 19:50:15.623,1789339815.6237524,67
2026-09-13 19:50:15.631,1789339815.6314447,60
2026-09-13 19:50:15.639,1789339815.639137,63
2026-09-13 19:50:15.646,1789339815.6468294,48
2026-09-13 19:50:15.654,1789339815.6545217,7
2026-09-13 19:50:15.662,1789339815.6622138,-2
2026-09-13 19:50:15.669,1789339815.6699061,19
2026-09-13 19:50:15.677,1789339815.6775985,26
2026-09-13 19:50:15.685,1789339815.6852908,4
2026-09-13 19:50:15.692,1789339815.6929832,-9
2026-09-13 19:50:15.700,1789339815.7006755,14
2026-09-13 19:50:15.708,1789339815.7083678,36
2026-09-13 19:50:15.716,1789339815.7160602,19
2026-09-13 19:50:15.723,1789339815.7237523,4
2026-09-13 19:50:15.731,1789339815.7314446,55
2026-09-13 19:50:15.739,1789339815.739137,278
2026-09-13 19:50:15.746,1789339815.7468293,756
2026-09-13 19:50:15.754,1789339815.7545216,1278
2026-09-13 19:50:15.762,1789339815.762214,1326
2026-09-13 19:50:15.769,1789339815.7699063,574
2026-09-13 19:50:15.777,1789339815.7775986,-276
2026-09-13 19:50:15.785,1789339815.7852907,-317
2026-09-13 19:50:15.792,1789339815.792983,-9
2026-09-13 19:50:15.800,1789339815.8006754,-43
2026-09-13 19:50:15.808,1789339815.8083677,-128
2026-09-13 19:50:15.816,1789339815.81606,-67
2026-09-13 19:50:15.823,1789339815.8237524,-67
2026-09-13 19:50:15.831,1789339815.8314447,-87
2026-09-13 19:50:15.839,1789339815.839137,-46
2026-09-13 19:50:15.846,1789339815.8468292,-31
2026-09-13 19:50:15.854,1789339815.8545215,-53
2026-09-13 19:50:15.862,1789339815.8622139,-38
2026-09-13 19:50:15.869,1789339815.8699062,-12
2026-09-13 19:50:15.877,1789339815.8775985,-7
2026-09-13 19:50:15.885,1789339815.8852909,0
2026-09-13 19:50:15.892,1789339815.8929832,16
2026-09-13 19:50:15.900,1789339815.9006755,19
2026-09-13 19:50:15.908,1789339815.9083676,19
2026-09-13 19:50:15.916,1789339815.91606,38
2026-09-13 19:50:15.923,1789339815.9237523,60
2026-09-13 19:50:15.931,1789339815.9314446,67
2026-09-13 19:50:15.939,1789339815.939137,77
2026-09-13 19:50:15.946,1789339815.9468293,111
2026-09-13 19:50:15.954,1789339815.9545217,147
2026-09-13 19:50:15.962,1789339815.962214,169
2026-09-13 19:50:15.969,1789339815.9699063,196
2026-09-13 19:50:15.977,1789339815.9775984,237
2026-09-13 19:50:15.985,1789339815.9852908,266
2026-09-13 19:50:15.992,1789339815.992983,283
2026-09-13 19:50:16.000,1789339816.0001135,293
2026-09-13 19:50:16.007,1789339816.0078058,286
2026-09-13 19:50:16.015,1789339816.0154982,261
2026-09-13 19:50:16.023,1789339816.0231905,220
2026-09-13 19:50:16.030,1789339816.0308828,147
2026-09-13 19:50:16.038,1789339816.038575,67
2026-09-13 19:50:16.046,1789339816.0462673,7
2026-09-13 19:50:16.053,1789339816.0539596,-46
2026-09-13 19:50:16.061,1789339816.061652,-84
2026-09-13 19:50:16.069,1789339816.0693443,-94
2026-09-13 19:50:16.077,1789339816.0770366,-94
2026-09-13 19:50:16.084,1789339816.084729,-104
2026-09-13 19:50:16.092,1789339816.0924213,-109
2026-09-13 19:50:16.100,1789339816.1001134,-94
2026-09-13 19:50:16.107,1789339816.1078057,-89
2026-09-13 19:50:16.115,1789339816.115498,-89
2026-09-13 19:50:16.123,1789339816.1231904,-77
2026-09-13 19:50:16.130,1789339816.1308827,-65
2026-09-13 19:50:16.138,1789339816.138575,-58
2026-09-13 19:50:16.146,1789339816.1462674,-43
2026-09-13 19:50:16.153,1789339816.1539598,-31
2026-09-13 19:50:16.161,1789339816.1616518,-36
2026-09-13 19:50:16.169,1789339816.1693442,-33
2026-09-13 19:50:16.177,1789339816.1770365,-29
2026-09-13 19:50:16.184,1789339816.1847289,-26
2026-09-13 19:50:16.192,1789339816.1924212,-19
2026-09-13 19:50:16.200,1789339816.2001135,-9
2026-09-13 19:50:16.207,1789339816.2078059,-9
2026-09-13 19:50:16.215,1789339816.2154982,-16
2026-09-13 19:50:16.223,1789339816.2231903,-19
2026-09-13 19:50:16.230,1789339816.2308826,-9
2026-09-13 19:50:16.238,1789339816.238575,-2
2026-09-13 19:50:16.246,1789339816.2462673,-12
2026-09-13 19:50:16.253,1789339816.2539597,-14
2026-09-13 19:50:16.261,1789339816.261652,-2
2026-09-13 19:50:16.269,1789339816.2693443,-4
2026-09-13 19:50:16.277,1789339816.2770367,-7
2026-09-13 19:50:16.284,1789339816.2847288,2
2026-09-13 19:50:16.292,1789339816.292421,-2
2026-09-13 19:50:16.300,1789339816.3001134,-19
2026-09-13 19:50:16.307,1789339816.3078058,-7
2026-09-13 19:50:16.315,1789339816.315498,24
2026-09-13 19:50:16.323,1789339816.3231905,38
2026-09-13 19:50:16.330,1789339816.3308828,46
2026-09-13 19:50:16.338,1789339816.3385751,63
2026-09-13 19:50:16.346,1789339816.3462672,70
2026-09-13 19:50:16.353,1789339816.3539596,65
2026-09-13 19:50:16.361,1789339816.361652,60
2026-09-13 19:50:16.369,1789339816.3693442,48
2026-09-13 19:50:16.377,1789339816.3770366,26
2026-09-13 19:50:16.384,1789339816.384729,16
2026-09-13 19:50:16.392,1789339816.3924212,24
2026-09-13 19:50:16.400,1789339816.4001136,29
2026-09-13 19:50:16.407,1789339816.4078057,19
2026-09-13 19:50:16.415,1789339816.415498,21
2026-09-13 19:50:16.423,1789339816.4231904,33
2026-09-13 19:50:16.430,1789339816.4308827,31
2026-09-13 19:50:16.438,1789339816.438575,24
2026-09-13 19:50:16.446,1789339816.4462674,31
2026-09-13 19:50:16.453,1789339816.4539597,82
2026-09-13 19:50:16.461,1789339816.461652,324
2026-09-13 19:50:16.469,1789339816.4693441,814
2026-09-13 19:50:16.477,1789339816.4770365,1290
2026-09-13 19:50:16.484,1789339816.4847288,1244
2026-09-13 19:50:16.492,1789339816.4924212,472
2026-09-13 19:50:16.500,1789339816.5001135,-244
2026-09-13 19:50:16.507,1789339816.5078058,-208
2026-09-13 19:50:16.515,1789339816.5154982,4
2026-09-13 19:50:16.523,1789339816.5231905,-89
2026-09-13 19:50:16.530,1789339816.5308828,-130
2026-09-13 19:50:16.538,1789339816.538575,-43
2026-09-13 19:50:16.546,1789339816.5462673,-48
2026-09-13 19:50:16.553,1789339816.5539596,-70
2026-09-13 19:50:16.561,1789339816.561121,-31
2026-09-13 19:50:16.568,1789339816.5688133,-14
2026-09-13 19:50:16.576,1789339816.5765057,-24
2026-09-13 19:50:16.584,1789339816.584198,-19
2026-09-13 19:50:16.591,1789339816.5918903,-4
2026-09-13 19:50:16.599,1789339816.5995824,7
2026-09-13 19:50:16.607,1789339816.6072748,19
2026-09-13 19:50:16.614,1789339816.614967,24
2026-09-13 19:50:16.622,1789339816.6226594,29
2026-09-13 19:50:16.630,1789339816.6303518,41
2026-09-13 19:50:16.638,1789339816.638044,53
2026-09-13 19:50:16.645,1789339816.6457365,70
2026-09-13 19:50:16.653,1789339816.6534288,84
2026-09-13 19:50:16.661,1789339816.661121,101
2026-09-13 19:50:16.668,1789339816.6688132,118
2026-09-13 19:50:16.676,1789339816.6765056,143
2026-09-13 19:50:16.684,1789339816.684198,169
2026-09-13 19:50:16.691,1789339816.6918902,203
2026-09-13 19:50:16.699,1789339816.6995826,232
2026-09-13 19:50:16.707,1789339816.707275,252
2026-09-13 19:50:16.714,1789339816.7149673,269
2026-09-13 19:50:16.722,1789339816.7226593,278
2026-09-13 19:50:16.730,1789339816.7303517,276
2026-09-13 19:50:16.738,1789339816.738044,259
2026-09-13 19:50:16.745,1789339816.7457364,218
2026-09-13 19:50:16.753,1789339816.7534287,150
2026-09-13 19:50:16.761,1789339816.761121,80
2026-09-13 19:50:16.768,1789339816.7688134,21
2026-09-13 19:50:16.776,1789339816.7765057,-21
2026-09-13 19:50:16.784,1789339816.7841978,-46
2026-09-13 19:50:16.791,1789339816.7918901,-60
2026-09-13 19:50:16.799,1789339816.7995825,-67
2026-09-13 19:50:16.807,1789339816.8072748,-75
2026-09-13 19:50:16.814,1789339816.8149672,-75
2026-09-13 19:50:16.822,1789339816.8226595,-65
2026-09-13 19:50:16.830,1789339816.8303518,-58
2026-09-13 19:50:16.838,1789339816.8380442,-50
2026-09-13 19:50:16.845,1789339816.8457363,-46
2026-09-13 19:50:16.853,1789339816.8534286,-43
2026-09-13 19:50:16.861,1789339816.861121,-41
2026-09-13 19:50:16.868,1789339816.8688133,-33
2026-09-13 19:50:16.876,1789339816.8765056,-24
2026-09-13 19:50:16.884,1789339816.884198,-24
2026-09-13 19:50:16.891,1789339816.8918903,-24
2026-09-13 19:50:16.899,1789339816.8995826,-19
2026-09-13 19:50:16.907,1789339816.9072747,-12
2026-09-13 19:50:16.914,1789339816.914967,-9
2026-09-13 19:50:16.922,1789339816.9226594,-12
2026-09-13 19:50:16.930,1789339816.9303517,-12
2026-09-13 19:50:16.938,1789339816.938044,-12
2026-09-13 19:50:16.945,1789339816.9457364,-7
2026-09-13 19:50:16.953,1789339816.9534287,0
2026-09-13 19:50:16.961,1789339816.961121,4
2026-09-13 19:50:16.968,1789339816.9688132,0
2026-09-13 19:50:16.976,1789339816.9765055,-7
2026-09-13 19:50:16.984,1789339816.9841979,-4
2026-09-13 19:50:16.991,1789339816.9918902,4
2026-09-13 19:50:16.999,1789339816.9995825,4
2026-09-13 19:50:17.007,1789339817.0072749,2
2026-09-13 19:50:17.014,1789339817.0149672,7
2026-09-13 19:50:17.022,1789339817.0226595,14
2026-09-13 19:50:17.030,1789339817.0303516,21
2026-09-13 19:50:17.038,1789339817.038044,24
2026-09-13 19:50:17.045,1789339817.0457363,19
2026-09-13 19:50:17.053,1789339817.0534286,12
2026-09-13 19:50:17.061,1789339817.061121,16
2026-09-13 19:50:17.068,1789339817.0688133,24
2026-09-13 19:50:17.076,1789339817.0765057,21
2026-09-13 19:50:17.084,1789339817.084198,21
2026-09-13 19:50:17.091,1789339817.0918903,21
2026-09-13 19:50:17.099,1789339817.0995824,14
2026-09-13 19:50:17.107,1789339817.1072748,12
2026-09-13 19:50:17.114,1789339817.114967,26
2026-09-13 19:50:17.122,1789339817.1220977,38
2026-09-13 19:50:17.129,1789339817.12979,46
2026-09-13 19:50:17.137,1789339817.1374824,67
2026-09-13 19:50:17.145,1789339817.1451747,84
2026-09-13 19:50:17.152,1789339817.152867,77
2026-09-13 19:50:17.160,1789339817.1605592,67
2026-09-13 19:50:17.168,1789339817.1682515,70
2026-09-13 19:50:17.175,1789339817.1759439,63
2026-09-13 19:50:17.183,1789339817.1836362,48
2026-09-13 19:50:17.191,1789339817.1913285,33
2026-09-13 19:50:17.199,1789339817.1990209,29
2026-09-13 19:50:17.206,1789339817.2067132,29
2026-09-13 19:50:17.214,1789339817.2144055,29
2026-09-13 19:50:17.222,1789339817.2220976,26
2026-09-13 19:50:17.229,1789339817.22979,29
2026-09-13 19:50:17.237,1789339817.2374823,29
2026-09-13 19:50:17.245,1789339817.2451746,21
2026-09-13 19:50:17.252,1789339817.252867,16
2026-09-13 19:50:17.260,1789339817.2605593,38
2026-09-13 19:50:17.268,1789339817.2682517,206
2026-09-13 19:50:17.275,1789339817.275944,613
2026-09-13 19:50:17.283,1789339817.283636,1096
2026-09-13 19:50:17.291,1789339817.2913284,1261
2026-09-13 19:50:17.299,1789339817.2990208,737
2026-09-13 19:50:17.306,1789339817.306713,-84
2026-09-13 19:50:17.314,1789339817.3144054,-291
2026-09-13 19:50:17.322,1789339817.3220978,-48
2026-09-13 19:50:17.329,1789339817.32979,-63
2026-09-13 19:50:17.337,1789339817.3374825,-162
2026-09-13 19:50:17.345,1789339817.3451746,-99
2026-09-13 19:50:17.352,1789339817.352867,-72
2026-09-13 19:50:17.360,1789339817.3605592,-106
2026-09-13 19:50:17.368,1789339817.3682516,-84
2026-09-13 19:50:17.375,1789339817.375944,-58
2026-09-13 19:50:17.383,1789339817.3836362,-65
2026-09-13 19:50:17.391,1789339817.3913286,-65
2026-09-13 19:50:17.399,1789339817.399021,-50
2026-09-13 19:50:17.406,1789339817.406713,-41
2026-09-13 19:50:17.414,1789339817.4144053,-33
2026-09-13 19:50:17.422,1789339817.4220977,-24
2026-09-13 19:50:17.429,1789339817.42979,-16
2026-09-13 19:50:17.437,1789339817.4374824,-4
2026-09-13 19:50:17.445,1789339817.4451747,4
2026-09-13 19:50:17.452,1789339817.452867,12
2026-09-13 19:50:17.460,1789339817.4605594,26
2026-09-13 19:50:17.468,1789339817.4682515,46
2026-09-13 19:50:17.475,1789339817.4759438,55
2026-09-13 19:50:17.483,1789339817.4836361,70
2026-09-13 19:50:17.491,1789339817.4913285,97
2026-09-13 19:50:17.499,1789339817.4990208,126
2026-09-13 19:50:17.506,1789339817.5067132,150
2026-09-13 19:50:17.514,1789339817.5144055,179
2026-09-13 19:50:17.522,1789339817.5220978,201
2026-09-13 19:50:17.529,1789339817.52979,210
2026-09-13 19:50:17.537,1789339817.5374823,218
2026-09-13 19:50:17.545,1789339817.5451746,215
2026-09-13 19:50:17.552,1789339817.552867,189
2026-09-13 19:50:17.560,1789339817.5605593,145
2026-09-13 19:50:17.568,1789339817.5682516,92
2026-09-13 19:50:17.575,1789339817.575944,36
2026-09-13 19:50:17.583,1789339817.5836363,-7
2026-09-13 19:50:17.591,1789339817.5913284,-38
2026-09-13 19:50:17.599,1789339817.5990207,-63
2026-09-13 19:50:17.606,1789339817.606713,-77
2026-09-13 19:50:17.614,1789339817.6144054,-82
2026-09-13 19:50:17.622,1789339817.6220977,-77
2026-09-13 19:50:17.629,1789339817.62979,-67
2026-09-13 19:50:17.637,1789339817.6374824,-60
2026-09-13 19:50:17.645,1789339817.6451747,-55
2026-09-13 19:50:17.652,1789339817.652867,-46
2026-09-13 19:50:17.660,1789339817.6605592,-31
2026-09-13 19:50:17.668,1789339817.6682515,-24
2026-09-13 19:50:17.675,1789339817.6759439,-29
2026-09-13 19:50:17.683,1789339817.683105,-21
2026-09-13 19:50:17.690,1789339817.6907973,-7
2026-09-13 19:50:17.698,1789339817.6984897,-2
2026-09-13 19:50:17.706,1789339817.706182,-2
2026-09-13 19:50:17.713,1789339817.7138743,-2
2026-09-13 19:50:17.721,1789339817.7215664,4
2026-09-13 19:50:17.729,1789339817.7292588,9
2026-09-13 19:50:17.736,1789339817.736951,12
2026-09-13 19:50:17.744,1789339817.7446434,16
2026-09-13 19:50:17.752,1789339817.7523358,19
2026-09-13 19:50:17.760,1789339817.7600281,16
2026-09-13 19:50:17.767,1789339817.7677205,21
2026-09-13 19:50:17.775,1789339817.7754128,31
2026-09-13 19:50:17.783,1789339817.783105,26
2026-09-13 19:50:17.790,1789339817.7907972,26
2026-09-13 19:50:17.798,1789339817.7984896,36
2026-09-13 19:50:17.806,1789339817.806182,36
2026-09-13 19:50:17.813,1789339817.8138742,36
2026-09-13 19:50:17.821,1789339817.8215666,41
2026-09-13 19:50:17.829,1789339817.829259,41
2026-09-13 19:50:17.836,1789339817.8369513,43
2026-09-13 19:50:17.844,1789339817.8446434,50
2026-09-13 19:50:17.852,1789339817.8523357,50
2026-09-13 19:50:17.860,1789339817.860028,43
2026-09-13 19:50:17.867,1789339817.8677204,48
2026-09-13 19:50:17.875,1789339817.8754127,55
2026-09-13 19:50:17.883,1789339817.883105,50
2026-09-13 19:50:17.890,1789339817.8907974,48
2026-09-13 19:50:17.898,1789339817.8984897,55
2026-09-13 19:50:17.906,1789339817.9061818,50
2026-09-13 19:50:17.913,1789339817.9138741,48
2026-09-13 19:50:17.921,1789339817.9215665,50
2026-09-13 19:50:17.929,1789339817.9292588,43
2026-09-13 19:50:17.936,1789339817.9369512,38
2026-09-13 19:50:17.944,1789339817.9446435,41
2026-09-13 19:50:17.952,1789339817.9523358,33
2026-09-13 19:50:17.960,1789339817.9600282,29
2026-09-13 19:50:17.967,1789339817.9677203,41
2026-09-13 19:50:17.975,1789339817.9754126,63
2026-09-13 19:50:17.983,1789339817.983105,82
2026-09-13 19:50:17.990,1789339817.9907973,94
2026-09-13 19:50:17.998,1789339817.9984896,92
2026-09-13 19:50:18.006,1789339818.006182,80
2026-09-13 19:50:18.013,1789339818.0138743,70
2026-09-13 19:50:18.021,1789339818.0215666,63
2026-09-13 19:50:18.029,1789339818.0292587,48
2026-09-13 19:50:18.036,1789339818.036951,24
2026-09-13 19:50:18.044,1789339818.0446434,7
2026-09-13 19:50:18.052,1789339818.0523357,9
2026-09-13 19:50:18.060,1789339818.060028,14
2026-09-13 19:50:18.067,1789339818.0677204,9
2026-09-13 19:50:18.075,1789339818.0754128,7
2026-09-13 19:50:18.083,1789339818.083105,12
2026-09-13 19:50:18.090,1789339818.0907972,9
2026-09-13 19:50:18.098,1789339818.0984895,0
2026-09-13 19:50:18.106,1789339818.1061819,-4
2026-09-13 19:50:18.113,1789339818.1138742,24
2026-09-13 19:50:18.121,1789339818.1215665,210
2026-09-13 19:50:18.129,1789339818.1292589,611
2026-09-13 19:50:18.136,1789339818.1369512,1057
2026-09-13 19:50:18.144,1789339818.1446435,1159
2026-09-13 19:50:18.152,1789339818.1523356,562
2026-09-13 19:50:18.160,1789339818.160028,-196
2026-09-13 19:50:18.167,1789339818.1677203,-271
2026-09-13 19:50:18.175,1789339818.1754127,-33
2026-09-13 19:50:18.183,1789339818.183105,-97
2026-09-13 19:50:18.190,1789339818.1907973,-172
2026-09-13 19:50:18.198,1789339818.1984897,-97
2026-09-13 19:50:18.206,1789339818.206182,-92
2026-09-13 19:50:18.213,1789339818.2138743,-123
2026-09-13 19:50:18.221,1789339818.2215664,-97
2026-09-13 19:50:18.229,1789339818.2292588,-77
2026-09-13 19:50:18.236,1789339818.236951,-89
2026-09-13 19:50:18.244,1789339818.2440817,-84
2026-09-13 19:50:18.251,1789339818.251774,-67
2026-09-13 19:50:18.259,1789339818.2594664,-55
2026-09-13 19:50:18.267,1789339818.2671587,-53
2026-09-13 19:50:18.274,1789339818.274851,-50
2026-09-13 19:50:18.282,1789339818.2825432,-43
2026-09-13 19:50:18.290,1789339818.2902355,-31
2026-09-13 19:50:18.297,1789339818.2979279,-21
2026-09-13 19:50:18.305,1789339818.3056202,-9
2026-09-13 19:50:18.313,1789339818.3133125,2
2026-09-13 19:50:18.321,1789339818.3210049,12
2026-09-13 19:50:18.328,1789339818.3286972,26
2026-09-13 19:50:18.336,1789339818.3363895,50
2026-09-13 19:50:18.344,1789339818.3440816,72
2026-09-13 19:50:18.351,1789339818.351774,97
2026-09-13 19:50:18.359,1789339818.3594663,126
2026-09-13 19:50:18.367,1789339818.3671587,147
2026-09-13 19:50:18.374,1789339818.374851,157
2026-09-13 19:50:18.382,1789339818.3825433,169
2026-09-13 19:50:18.390,1789339818.3902357,177
2026-09-13 19:50:18.397,1789339818.397928,162
2026-09-13 19:50:18.405,1789339818.40562,128
2026-09-13 19:50:18.413,1789339818.4133124,87
2026-09-13 19:50:18.421,1789339818.4210048,31
2026-09-13 19:50:18.428,1789339818.428697,-24
2026-09-13 19:50:18.436,1789339818.4363894,-77
2026-09-13 19:50:18.444,1789339818.4440818,-116
2026-09-13 19:50:18.451,1789339818.4517741,-130
2026-09-13 19:50:18.459,1789339818.4594665,-140
2026-09-13 19:50:18.467,1789339818.4671586,-152
2026-09-13 19:50:18.474,1789339818.474851,-152
2026-09-13 19:50:18.482,1789339818.4825432,-138
2026-09-13 19:50:18.490,1789339818.4902356,-135
2026-09-13 19:50:18.497,1789339818.497928,-135
2026-09-13 19:50:18.505,1789339818.5056202,-123
2026-09-13 19:50:18.513,1789339818.5133126,-118
2026-09-13 19:50:18.521,1789339818.521005,-113
2026-09-13 19:50:18.528,1789339818.528697,-106
2026-09-13 19:50:18.536,1789339818.5363894,-106
2026-09-13 19:50:18.544,1789339818.5440817,-99
2026-09-13 19:50:18.551,1789339818.551774,-94
2026-09-13 19:50:18.559,1789339818.5594664,-97
2026-09-13 19:50:18.567,1789339818.5671587,-87
2026-09-13 19:50:18.574,1789339818.574851,-82
2026-09-13 19:50:18.582,1789339818.5825434,-89
2026-09-13 19:50:18.590,1789339818.5902355,-89
2026-09-13 19:50:18.597,1789339818.5979278,-82
2026-09-13 19:50:18.605,1789339818.6056201,-84
2026-09-13 19:50:18.613,1789339818.6133125,-84
2026-09-13 19:50:18.621,1789339818.6210048,-82
2026-09-13 19:50:18.628,1789339818.6286972,-82
2026-09-13 19:50:18.636,1789339818.6363895,-82
2026-09-13 19:50:18.644,1789339818.6440818,-75
2026-09-13 19:50:18.651,1789339818.651774,-77
2026-09-13 19:50:18.659,1789339818.6594663,-80
2026-09-13 19:50:18.667,1789339818.6671586,-72
2026-09-13 19:50:18.674,1789339818.674851,-65
2026-09-13 19:50:18.682,1789339818.6825433,-70
2026-09-13 19:50:18.690,1789339818.6902356,-72
2026-09-13 19:50:18.697,1789339818.697928,-70
2026-09-13 19:50:18.705,1789339818.7056203,-67
2026-09-13 19:50:18.713,1789339818.7133124,-63
2026-09-13 19:50:18.721,1789339818.7210047,-58
2026-09-13 19:50:18.728,1789339818.728697,-58
2026-09-13 19:50:18.736,1789339818.7363894,-58
2026-09-13 19:50:18.744,1789339818.7440817,-58
2026-09-13 19:50:18.751,1789339818.751774,-60
2026-09-13 19:50:18.759,1789339818.7594664,-55
2026-09-13 19:50:18.767,1789339818.7671587,-50
2026-09-13 19:50:18.774,1789339818.774851,-53
2026-09-13 19:50:18.782,1789339818.7825432,-53
2026-09-13 19:50:18.790,1789339818.7902355,-50
2026-09-13 19:50:18.797,1789339818.7979279,-50
2026-09-13 19:50:18.805,1789339818.8050892,-48
2026-09-13 19:50:18.812,1789339818.8127816,-41
2026-09-13 19:50:18.820,1789339818.820474,-43
2026-09-13 19:50:18.828,1789339818.8281662,-50
2026-09-13 19:50:18.835,1789339818.8358586,-53
2026-09-13 19:50:18.843,1789339818.8435507,-41
2026-09-13 19:50:18.851,1789339818.851243,-19
2026-09-13 19:50:18.858,1789339818.8589354,2
2026-09-13 19:50:18.866,1789339818.8666277,21
2026-09-13 19:50:18.874,1789339818.87432,33
2026-09-13 19:50:18.882,1789339818.8820124,21
2026-09-13 19:50:18.889,1789339818.8897047,7
2026-09-13 19:50:18.897,1789339818.897397,9
2026-09-13 19:50:18.905,1789339818.9050891,7
2026-09-13 19:50:18.912,1789339818.9127815,-14
2026-09-13 19:50:18.920,1789339818.9204738,-31
2026-09-13 19:50:18.928,1789339818.9281662,-36
2026-09-13 19:50:18.935,1789339818.9358585,-36
2026-09-13 19:50:18.943,1789339818.9435508,-31
2026-09-13 19:50:18.951,1789339818.9512432,-26
2026-09-13 19:50:18.958,1789339818.9589355,-21
2026-09-13 19:50:18.966,1789339818.9666276,-21
2026-09-13 19:50:18.974,1789339818.97432,-26
2026-09-13 19:50:18.982,1789339818.9820123,-33
2026-09-13 19:50:18.989,1789339818.9897046,-16
2026-09-13 19:50:18.997,1789339818.997397,123
2026-09-13 19:50:19.005,1789339819.0050893,455
2026-09-13 19:50:19.012,1789339819.0127816,892
2026-09-13 19:50:19.020,1789339819.020474,1125
2026-09-13 19:50:19.028,1789339819.028166,688
2026-09-13 19:50:19.035,1789339819.0358584,-123
2026-09-13 19:50:19.043,1789339819.0435507,-324
2026-09-13 19:50:19.051,1789339819.051243,-50
2026-09-13 19:50:19.058,1789339819.0589354,-63
2026-09-13 19:50:19.066,1789339819.0666277,-169
