timestamp_local,timestamp_epoch_s,ecg_uV
2026-09-11 19:25:37.231,1789165537.2315035,400
2026-09-11 19:25:37.239,1789165537.2391958,494
2026-09-11 19:25:37.246,1789165537.2468882,717
2026-09-11 19:25:37.254,1789165537.2545805,858
2026-09-11 19:25:37.262,1789165537.2622728,841
2026-09-11 19:25:37.269,1789165537.269965,851
2026-09-11 19:25:37.277,1789165537.2776573,902
2026-09-11 19:25:37.285,1789165537.2853496,882
2026-09-11 19:25:37.293,1789165537.293042,817
2026-09-11 19:25:37.300,1789165537.3007343,754
2026-09-11 19:25:37.308,1789165537.3084266,722
2026-09-11 19:25:37.316,1789165537.316119,756
2026-09-11 19:25:37.323,1789165537.3238113,761
2026-09-11 19:25:37.331,1789165537.3315034,664
2026-09-11 19:25:37.339,1789165537.3391957,596
2026-09-11 19:25:37.346,1789165537.346888,606
2026-09-11 19:25:37.354,1789165537.3545804,552
2026-09-11 19:25:37.362,1789165537.3622727,465
2026-09-11 19:25:37.369,1789165537.369965,477
2026-09-11 19:25:37.377,1789165537.3776574,562
2026-09-11 19:25:37.385,1789165537.3853498,615
2026-09-11 19:25:37.393,1789165537.3930418,601
2026-09-11 19:25:37.400,1789165537.4007342,548
2026-09-11 19:25:37.408,1789165537.4084265,509
2026-09-11 19:25:37.416,1789165537.4161189,511
2026-09-11 19:25:37.423,1789165537.4238112,472
2026-09-11 19:25:37.431,1789165537.4315035,395
2026-09-11 19:25:37.439,1789165537.4391959,371
2026-09-11 19:25:37.446,1789165537.4468882,390
2026-09-11 19:25:37.454,1789165537.4545803,380
2026-09-11 19:25:37.462,1789165537.4622726,337
2026-09-11 19:25:37.469,1789165537.469965,295
2026-09-11 19:25:37.477,1789165537.4776573,288
2026-09-11 19:25:37.485,1789165537.4853497,317
2026-09-11 19:25:37.493,1789165537.493042,341
2026-09-11 19:25:37.500,1789165537.5007343,344
2026-09-11 19:25:37.508,1789165537.5084267,349
2026-09-11 19:25:37.516,1789165537.5161188,341
2026-09-11 19:25:37.523,1789165537.523811,293
2026-09-11 19:25:37.531,1789165537.5315034,252
2026-09-11 19:25:37.539,1789165537.5391958,254
2026-09-11 19:25:37.546,1789165537.546888,242
2026-09-11 19:25:37.554,1789165537.5545805,201
2026-09-11 19:25:37.562,1789165537.5622728,194
2026-09-11 19:25:37.569,1789165537.5699651,210
2026-09-11 19:25:37.577,1789165537.5776572,232
2026-09-11 19:25:37.585,1789165537.5853496,283
2026-09-11 19:25:37.593,1789165537.593042,344
2026-09-11 19:25:37.600,1789165537.6007342,341
2026-09-11 19:25:37.608,1789165537.6084266,232
2026-09-11 19:25:37.616,1789165537.616119,118
2026-09-11 19:25:37.623,1789165537.6238112,126
2026-09-11 19:25:37.631,1789165537.6315036,269
2026-09-11 19:25:37.639,1789165537.6391957,434
2026-09-11 19:25:37.646,1789165537.646888,521
2026-09-11 19:25:37.654,1789165537.6545804,613
2026-09-11 19:25:37.662,1789165537.6622727,819
2026-09-11 19:25:37.669,1789165537.669965,1178
2026-09-11 19:25:37.677,1789165537.6776574,1297
2026-09-11 19:25:37.685,1789165537.6853497,654
2026-09-11 19:25:37.693,1789165537.693042,-16
2026-09-11 19:25:37.700,1789165537.7007341,133
2026-09-11 19:25:37.708,1789165537.7084265,404
2026-09-11 19:25:37.716,1789165537.7161188,274
2026-09-11 19:25:37.723,1789165537.7238111,225
2026-09-11 19:25:37.731,1789165537.7315035,317
2026-09-11 19:25:37.739,1789165537.7391958,278
2026-09-11 19:25:37.746,1789165537.7468882,247
2026-09-11 19:25:37.754,1789165537.7545805,303
2026-09-11 19:25:37.762,1789165537.7622728,295
2026-09-11 19:25:37.769,1789165537.769965,218
2026-09-11 19:25:37.777,1789165537.7776573,145
2026-09-11 19:25:37.785,1789165537.7853496,99
2026-09-11 19:25:37.792,1789165537.7924497,104
2026-09-11 19:25:37.800,1789165537.800142,130
2026-09-11 19:25:37.807,1789165537.8078344,82
2026-09-11 19:25:37.815,1789165537.8155267,12
2026-09-11 19:25:37.823,1789165537.823219,26
2026-09-11 19:25:37.830,1789165537.8309112,72
2026-09-11 19:25:37.838,1789165537.8386035,70
2026-09-11 19:25:37.846,1789165537.8462958,77
2026-09-11 19:25:37.853,1789165537.8539882,126
2026-09-11 19:25:37.861,1789165537.8616805,172
2026-09-11 19:25:37.869,1789165537.8693728,191
2026-09-11 19:25:37.877,1789165537.8770652,218
2026-09-11 19:25:37.884,1789165537.8847575,206
2026-09-11 19:25:37.892,1789165537.8924496,133
2026-09-11 19:25:37.900,1789165537.900142,104
2026-09-11 19:25:37.907,1789165537.9078343,106
2026-09-11 19:25:37.915,1789165537.9155266,43
2026-09-11 19:25:37.923,1789165537.923219,-55
2026-09-11 19:25:37.930,1789165537.9309113,-77
2026-09-11 19:25:37.938,1789165537.9386036,-53
2026-09-11 19:25:37.946,1789165537.946296,-55
2026-09-11 19:25:37.953,1789165537.953988,-43
2026-09-11 19:25:37.961,1789165537.9616804,-2
2026-09-11 19:25:37.969,1789165537.9693727,0
2026-09-11 19:25:37.977,1789165537.977065,-16
2026-09-11 19:25:37.984,1789165537.9847574,-19
2026-09-11 19:25:37.992,1789165537.9924498,-80
2026-09-11 19:25:38.000,1789165538.000142,-288
2026-09-11 19:25:38.007,1789165538.0078344,-548
2026-09-11 19:25:38.015,1789165538.0155265,-640
2026-09-11 19:25:38.023,1789165538.0232189,-603
2026-09-11 19:25:38.030,1789165538.0309112,-601
2026-09-11 19:25:38.038,1789165538.0386035,-613
2026-09-11 19:25:38.046,1789165538.046296,-645
2026-09-11 19:25:38.053,1789165538.0539882,-725
2026-09-11 19:25:38.061,1789165538.0616806,-768
2026-09-11 19:25:38.069,1789165538.069373,-754
2026-09-11 19:25:38.077,1789165538.077065,-739
2026-09-11 19:25:38.084,1789165538.0847573,-725
2026-09-11 19:25:38.092,1789165538.0924497,-696
2026-09-11 19:25:38.100,1789165538.100142,-686
2026-09-11 19:25:38.107,1789165538.1078343,-710
2026-09-11 19:25:38.115,1789165538.1155267,-744
2026-09-11 19:25:38.123,1789165538.123219,-737
2026-09-11 19:25:38.130,1789165538.1309114,-674
2026-09-11 19:25:38.138,1789165538.1386034,-620
2026-09-11 19:25:38.146,1789165538.1462958,-601
2026-09-11 19:25:38.153,1789165538.1539881,-572
2026-09-11 19:25:38.161,1789165538.1616805,-543
2026-09-11 19:25:38.169,1789165538.1693728,-533
2026-09-11 19:25:38.177,1789165538.1770651,-523
2026-09-11 19:25:38.184,1789165538.1847575,-511
2026-09-11 19:25:38.192,1789165538.1924498,-506
2026-09-11 19:25:38.200,1789165538.200142,-506
2026-09-11 19:25:38.207,1789165538.2078342,-489
2026-09-11 19:25:38.215,1789165538.2155266,-475
2026-09-11 19:25:38.223,1789165538.223219,-499
2026-09-11 19:25:38.230,1789165538.2309113,-533
2026-09-11 19:25:38.238,1789165538.2386036,-548
2026-09-11 19:25:38.246,1789165538.246296,-567
2026-09-11 19:25:38.253,1789165538.2539883,-562
2026-09-11 19:25:38.261,1789165538.2616804,-511
2026-09-11 19:25:38.269,1789165538.2693727,-465
2026-09-11 19:25:38.277,1789165538.277065,-448
2026-09-11 19:25:38.284,1789165538.2847574,-438
2026-09-11 19:25:38.292,1789165538.2924497,-431
2026-09-11 19:25:38.300,1789165538.300142,-431
2026-09-11 19:25:38.307,1789165538.3078344,-451
2026-09-11 19:25:38.315,1789165538.3155267,-453
2026-09-11 19:25:38.323,1789165538.323219,-426
2026-09-11 19:25:38.330,1789165538.3309112,-400
2026-09-11 19:25:38.338,1789165538.3386035,-378
2026-09-11 19:25:38.346,1789165538.3462958,-385
2026-09-11 19:25:38.353,1789165538.353396,-417
2026-09-11 19:25:38.361,1789165538.3610883,-431
2026-09-11 19:25:38.368,1789165538.3687806,-397
2026-09-11 19:25:38.376,1789165538.376473,-295
2026-09-11 19:25:38.384,1789165538.3841653,-109
2026-09-11 19:25:38.391,1789165538.3918574,130
2026-09-11 19:25:38.399,1789165538.3995497,412
2026-09-11 19:25:38.407,1789165538.407242,460
2026-09-11 19:25:38.414,1789165538.4149344,-65
2026-09-11 19:25:38.422,1789165538.4226267,-550
2026-09-11 19:25:38.430,1789165538.430319,-368
2026-09-11 19:25:38.438,1789165538.4380114,-94
2026-09-11 19:25:38.445,1789165538.4457037,-157
2026-09-11 19:25:38.453,1789165538.4533958,-218
2026-09-11 19:25:38.461,1789165538.4610882,-194
2026-09-11 19:25:38.468,1789165538.4687805,-240
2026-09-11 19:25:38.476,1789165538.4764729,-283
2026-09-11 19:25:38.484,1789165538.4841652,-276
2026-09-11 19:25:38.491,1789165538.4918575,-293
2026-09-11 19:25:38.499,1789165538.4995499,-300
2026-09-11 19:25:38.507,1789165538.5072422,-261
2026-09-11 19:25:38.514,1789165538.5149343,-252
2026-09-11 19:25:38.522,1789165538.5226266,-278
2026-09-11 19:25:38.530,1789165538.530319,-274
2026-09-11 19:25:38.538,1789165538.5380113,-254
2026-09-11 19:25:38.545,1789165538.5457036,-252
2026-09-11 19:25:38.553,1789165538.553396,-242
2026-09-11 19:25:38.561,1789165538.5610883,-208
2026-09-11 19:25:38.568,1789165538.5687807,-172
2026-09-11 19:25:38.576,1789165538.5764728,-150
2026-09-11 19:25:38.584,1789165538.584165,-123
2026-09-11 19:25:38.591,1789165538.5918574,-101
2026-09-11 19:25:38.599,1789165538.5995498,-92
2026-09-11 19:25:38.607,1789165538.607242,-92
2026-09-11 19:25:38.614,1789165538.6149344,-116
2026-09-11 19:25:38.622,1789165538.6226268,-135
2026-09-11 19:25:38.630,1789165538.630319,-116
2026-09-11 19:25:38.638,1789165538.6380112,-97
2026-09-11 19:25:38.645,1789165538.6457036,-126
2026-09-11 19:25:38.653,1789165538.653396,-152
2026-09-11 19:25:38.661,1789165538.6610882,-162
2026-09-11 19:25:38.668,1789165538.6687806,-184
2026-09-11 19:25:38.676,1789165538.676473,-198
2026-09-11 19:25:38.684,1789165538.6841652,-191
2026-09-11 19:25:38.691,1789165538.6918576,-206
2026-09-11 19:25:38.699,1789165538.6995497,-215
2026-09-11 19:25:38.707,1789165538.707242,-162
2026-09-11 19:25:38.714,1789165538.7149343,-75
2026-09-11 19:25:38.722,1789165538.7226267,-26
2026-09-11 19:25:38.730,1789165538.730319,-4
2026-09-11 19:25:38.738,1789165538.7380114,53
2026-09-11 19:25:38.745,1789165538.7457037,145
2026-09-11 19:25:38.753,1789165538.753396,194
2026-09-11 19:25:38.761,1789165538.7610881,167
2026-09-11 19:25:38.768,1789165538.7687805,143
2026-09-11 19:25:38.776,1789165538.7764728,174
2026-09-11 19:25:38.784,1789165538.7841651,218
2026-09-11 19:25:38.791,1789165538.7918575,203
2026-09-11 19:25:38.799,1789165538.7995498,162
2026-09-11 19:25:38.807,1789165538.8072422,150
2026-09-11 19:25:38.814,1789165538.8149345,174
2026-09-11 19:25:38.822,1789165538.8226266,206
2026-09-11 19:25:38.830,1789165538.830319,210
2026-09-11 19:25:38.838,1789165538.8380113,194
2026-09-11 19:25:38.845,1789165538.8457036,164
2026-09-11 19:25:38.853,1789165538.853396,123
2026-09-11 19:25:38.861,1789165538.8610883,87
2026-09-11 19:25:38.868,1789165538.8687806,70
2026-09-11 19:25:38.876,1789165538.876473,82
2026-09-11 19:25:38.884,1789165538.8841653,118
2026-09-11 19:25:38.891,1789165538.8918574,143
2026-09-11 19:25:38.899,1789165538.8995497,140
2026-09-11 19:25:38.907,1789165538.907242,143
2026-09-11 19:25:38.914,1789165538.9143424,147
2026-09-11 19:25:38.922,1789165538.9220347,135
2026-09-11 19:25:38.929,1789165538.929727,116
2026-09-11 19:25:38.937,1789165538.9374194,111
2026-09-11 19:25:38.945,1789165538.9451118,121
2026-09-11 19:25:38.952,1789165538.9528039,143
2026-09-11 19:25:38.960,1789165538.9604962,155
2026-09-11 19:25:38.968,1789165538.9681885,138
2026-09-11 19:25:38.975,1789165538.9758809,121
2026-09-11 19:25:38.983,1789165538.9835732,113
2026-09-11 19:25:38.991,1789165538.9912655,111
2026-09-11 19:25:38.998,1789165538.9989579,130
2026-09-11 19:25:39.006,1789165539.0066502,164
2026-09-11 19:25:39.014,1789165539.0143423,181
2026-09-11 19:25:39.022,1789165539.0220346,177
2026-09-11 19:25:39.029,1789165539.029727,157
2026-09-11 19:25:39.037,1789165539.0374193,123
2026-09-11 19:25:39.045,1789165539.0451117,89
2026-09-11 19:25:39.052,1789165539.052804,67
2026-09-11 19:25:39.060,1789165539.0604963,63
2026-09-11 19:25:39.068,1789165539.0681887,48
2026-09-11 19:25:39.075,1789165539.0758808,29
2026-09-11 19:25:39.083,1789165539.083573,21
2026-09-11 19:25:39.091,1789165539.0912654,14
2026-09-11 19:25:39.098,1789165539.0989578,-7
2026-09-11 19:25:39.106,1789165539.10665,-7
2026-09-11 19:25:39.114,1789165539.1143425,99
2026-09-11 19:25:39.122,1789165539.1220348,339
2026-09-11 19:25:39.129,1789165539.1297271,623
2026-09-11 19:25:39.137,1789165539.1374192,897
2026-09-11 19:25:39.145,1789165539.1451116,894
2026-09-11 19:25:39.152,1789165539.152804,310
2026-09-11 19:25:39.160,1789165539.1604962,-223
2026-09-11 19:25:39.168,1789165539.1681886,-80
2026-09-11 19:25:39.175,1789165539.175881,177
2026-09-11 19:25:39.183,1789165539.1835732,143
2026-09-11 19:25:39.191,1789165539.1912656,92
2026-09-11 19:25:39.198,1789165539.1989577,84
2026-09-11 19:25:39.206,1789165539.20665,26
2026-09-11 19:25:39.214,1789165539.2143424,-4
2026-09-11 19:25:39.222,1789165539.2220347,29
2026-09-11 19:25:39.229,1789165539.229727,75
2026-09-11 19:25:39.237,1789165539.2374194,116
2026-09-11 19:25:39.245,1789165539.2451117,130
2026-09-11 19:25:39.252,1789165539.252804,109
2026-09-11 19:25:39.260,1789165539.2604961,99
2026-09-11 19:25:39.268,1789165539.2681885,118
2026-09-11 19:25:39.275,1789165539.2758808,128
2026-09-11 19:25:39.283,1789165539.2835732,143
2026-09-11 19:25:39.291,1789165539.2912655,179
2026-09-11 19:25:39.298,1789165539.2989578,194
2026-09-11 19:25:39.306,1789165539.3066502,189
2026-09-11 19:25:39.314,1789165539.3143425,179
2026-09-11 19:25:39.322,1789165539.3220346,157
2026-09-11 19:25:39.329,1789165539.329727,133
2026-09-11 19:25:39.337,1789165539.3374193,128
2026-09-11 19:25:39.345,1789165539.3451116,147
2026-09-11 19:25:39.352,1789165539.352804,177
2026-09-11 19:25:39.360,1789165539.3604963,177
2026-09-11 19:25:39.368,1789165539.3681886,169
2026-09-11 19:25:39.375,1789165539.375881,169
2026-09-11 19:25:39.383,1789165539.383573,162
2026-09-11 19:25:39.391,1789165539.3912654,169
2026-09-11 19:25:39.398,1789165539.3989577,177
2026-09-11 19:25:39.406,1789165539.40665,143
2026-09-11 19:25:39.414,1789165539.4143424,94
2026-09-11 19:25:39.422,1789165539.4220347,48
2026-09-11 19:25:39.429,1789165539.429727,19
2026-09-11 19:25:39.437,1789165539.4374194,0
2026-09-11 19:25:39.445,1789165539.4451118,-24
2026-09-11 19:25:39.452,1789165539.4528039,-43
2026-09-11 19:25:39.460,1789165539.4604962,-41
2026-09-11 19:25:39.468,1789165539.4681885,-46
2026-09-11 19:25:39.475,1789165539.475319,-70
2026-09-11 19:25:39.483,1789165539.4830112,-80
2026-09-11 19:25:39.490,1789165539.4907036,-65
2026-09-11 19:25:39.498,1789165539.498396,-48
2026-09-11 19:25:39.506,1789165539.5060883,-48
2026-09-11 19:25:39.513,1789165539.5137804,-48
2026-09-11 19:25:39.521,1789165539.5214727,-33
2026-09-11 19:25:39.529,1789165539.529165,-33
2026-09-11 19:25:39.536,1789165539.5368574,-43
2026-09-11 19:25:39.544,1789165539.5445497,-29
2026-09-11 19:25:39.552,1789165539.552242,-33
2026-09-11 19:25:39.559,1789165539.5599344,-75
2026-09-11 19:25:39.567,1789165539.5676267,-92
2026-09-11 19:25:39.575,1789165539.5753188,-109
2026-09-11 19:25:39.583,1789165539.5830112,-157
2026-09-11 19:25:39.590,1789165539.5907035,-220
2026-09-11 19:25:39.598,1789165539.5983958,-351
2026-09-11 19:25:39.606,1789165539.6060882,-511
2026-09-11 19:25:39.613,1789165539.6137805,-565
2026-09-11 19:25:39.621,1789165539.6214728,-596
2026-09-11 19:25:39.629,1789165539.6291652,-703
2026-09-11 19:25:39.636,1789165539.6368573,-788
2026-09-11 19:25:39.644,1789165539.6445496,-805
2026-09-11 19:25:39.652,1789165539.652242,-831
2026-09-11 19:25:39.659,1789165539.6599343,-877
2026-09-11 19:25:39.667,1789165539.6676266,-875
2026-09-11 19:25:39.675,1789165539.675319,-848
2026-09-11 19:25:39.683,1789165539.6830113,-829
2026-09-11 19:25:39.690,1789165539.6907036,-812
2026-09-11 19:25:39.698,1789165539.6983957,-802
2026-09-11 19:25:39.706,1789165539.706088,-809
2026-09-11 19:25:39.713,1789165539.7137804,-814
2026-09-11 19:25:39.721,1789165539.7214727,-805
2026-09-11 19:25:39.729,1789165539.729165,-797
2026-09-11 19:25:39.736,1789165539.7368574,-795
2026-09-11 19:25:39.744,1789165539.7445498,-785
2026-09-11 19:25:39.752,1789165539.752242,-768
2026-09-11 19:25:39.759,1789165539.7599342,-756
2026-09-11 19:25:39.767,1789165539.7676265,-729
2026-09-11 19:25:39.775,1789165539.7753189,-703
2026-09-11 19:25:39.783,1789165539.7830112,-674
2026-09-11 19:25:39.790,1789165539.7907035,-535
2026-09-11 19:25:39.798,1789165539.7983959,-242
2026-09-11 19:25:39.806,1789165539.8060882,99
2026-09-11 19:25:39.813,1789165539.8137805,235
2026-09-11 19:25:39.821,1789165539.8214726,-252
2026-09-11 19:25:39.829,1789165539.829165,-1018
2026-09-11 19:25:39.836,1789165539.8368573,-1081
2026-09-11 19:25:39.844,1789165539.8445497,-681
2026-09-11 19:25:39.852,1789165539.852242,-628
2026-09-11 19:25:39.859,1789165539.8599343,-710
2026-09-11 19:25:39.867,1789165539.8676267,-637
2026-09-11 19:25:39.875,1789165539.875319,-620
2026-09-11 19:25:39.883,1789165539.883011,-659
2026-09-11 19:25:39.890,1789165539.8907034,-623
2026-09-11 19:25:39.898,1789165539.8983958,-572
2026-09-11 19:25:39.906,1789165539.906088,-565
2026-09-11 19:25:39.913,1789165539.9137805,-555
2026-09-11 19:25:39.921,1789165539.9214728,-523
2026-09-11 19:25:39.929,1789165539.9291651,-489
2026-09-11 19:25:39.936,1789165539.9368575,-460
2026-09-11 19:25:39.944,1789165539.9445496,-438
2026-09-11 19:25:39.952,1789165539.952242,-409
2026-09-11 19:25:39.959,1789165539.9599342,-366
2026-09-11 19:25:39.967,1789165539.9676266,-346
2026-09-11 19:25:39.975,1789165539.975319,-346
2026-09-11 19:25:39.983,1789165539.9830112,-320
2026-09-11 19:25:39.990,1789165539.9907036,-283
2026-09-11 19:25:39.998,1789165539.998396,-266
2026-09-11 19:25:40.006,1789165540.0060883,-240
2026-09-11 19:25:40.013,1789165540.0137804,-206
2026-09-11 19:25:40.021,1789165540.0214727,-189
2026-09-11 19:25:40.029,1789165540.029165,-179
2026-09-11 19:25:40.036,1789165540.0362654,-179
2026-09-11 19:25:40.043,1789165540.0439577,-186
2026-09-11 19:25:40.051,1789165540.05165,-201
2026-09-11 19:25:40.059,1789165540.0593424,-230
2026-09-11 19:25:40.067,1789165540.0670347,-274
2026-09-11 19:25:40.074,1789165540.0747268,-320
2026-09-11 19:25:40.082,1789165540.0824192,-354
2026-09-11 19:25:40.090,1789165540.0901115,-383
2026-09-11 19:25:40.097,1789165540.0978038,-402
2026-09-11 19:25:40.105,1789165540.1054962,-400
2026-09-11 19:25:40.113,1789165540.1131885,-390
2026-09-11 19:25:40.120,1789165540.1208808,-390
2026-09-11 19:25:40.128,1789165540.1285732,-388
2026-09-11 19:25:40.136,1789165540.1362653,-363
2026-09-11 19:25:40.143,1789165540.1439576,-341
2026-09-11 19:25:40.151,1789165540.15165,-329
2026-09-11 19:25:40.159,1789165540.1593423,-312
2026-09-11 19:25:40.167,1789165540.1670346,-293
2026-09-11 19:25:40.174,1789165540.174727,-274
2026-09-11 19:25:40.182,1789165540.1824193,-259
2026-09-11 19:25:40.190,1789165540.1901116,-257
2026-09-11 19:25:40.197,1789165540.1978037,-257
2026-09-11 19:25:40.205,1789165540.205496,-240
2026-09-11 19:25:40.213,1789165540.2131884,-220
2026-09-11 19:25:40.220,1789165540.2208807,-223
2026-09-11 19:25:40.228,1789165540.228573,-232
2026-09-11 19:25:40.236,1789165540.2362654,-232
2026-09-11 19:25:40.243,1789165540.2439578,-235
2026-09-11 19:25:40.251,1789165540.25165,-242
2026-09-11 19:25:40.259,1789165540.2593422,-247
2026-09-11 19:25:40.267,1789165540.2670345,-264
2026-09-11 19:25:40.274,1789165540.2747269,-283
2026-09-11 19:25:40.282,1789165540.2824192,-281
2026-09-11 19:25:40.290,1789165540.2901115,-271
2026-09-11 19:25:40.297,1789165540.2978039,-257
2026-09-11 19:25:40.305,1789165540.3054962,-227
2026-09-11 19:25:40.313,1789165540.3131886,-181
2026-09-11 19:25:40.320,1789165540.3208807,-128
2026-09-11 19:25:40.328,1789165540.328573,-70
2026-09-11 19:25:40.336,1789165540.3362653,-2
2026-09-11 19:25:40.343,1789165540.3439577,14
2026-09-11 19:25:40.351,1789165540.35165,-43
2026-09-11 19:25:40.359,1789165540.3593423,-97
2026-09-11 19:25:40.367,1789165540.3670347,-101
2026-09-11 19:25:40.374,1789165540.374727,-101
2026-09-11 19:25:40.382,1789165540.382419,-94
2026-09-11 19:25:40.390,1789165540.3901114,-41
2026-09-11 19:25:40.397,1789165540.3978038,14
2026-09-11 19:25:40.405,1789165540.4054961,21
2026-09-11 19:25:40.413,1789165540.4131885,14
2026-09-11 19:25:40.420,1789165540.4208808,36
2026-09-11 19:25:40.428,1789165540.4285731,138
2026-09-11 19:25:40.436,1789165540.4362655,378
2026-09-11 19:25:40.443,1789165540.4439576,708
2026-09-11 19:25:40.451,1789165540.45165,923
2026-09-11 19:25:40.459,1789165540.4593422,584
2026-09-11 19:25:40.467,1789165540.4670346,-247
2026-09-11 19:25:40.474,1789165540.474727,-531
2026-09-11 19:25:40.482,1789165540.4824193,-145
2026-09-11 19:25:40.490,1789165540.4901116,-29
2026-09-11 19:25:40.497,1789165540.497804,-169
2026-09-11 19:25:40.505,1789165540.505496,-99
2026-09-11 19:25:40.513,1789165540.5131884,-12
2026-09-11 19:25:40.520,1789165540.5208807,-43
2026-09-11 19:25:40.528,1789165540.528573,-31
2026-09-11 19:25:40.536,1789165540.5362654,26
2026-09-11 19:25:40.543,1789165540.5439577,63
2026-09-11 19:25:40.551,1789165540.55165,94
2026-09-11 19:25:40.559,1789165540.5593424,123
2026-09-11 19:25:40.567,1789165540.5670347,167
2026-09-11 19:25:40.574,1789165540.5747268,269
2026-09-11 19:25:40.582,1789165540.5824192,351
2026-09-11 19:25:40.590,1789165540.5901115,368
2026-09-11 19:25:40.597,1789165540.5972116,404
2026-09-11 19:25:40.604,1789165540.604904,443
2026-09-11 19:25:40.612,1789165540.6125963,424
2026-09-11 19:25:40.620,1789165540.6202886,417
2026-09-11 19:25:40.627,1789165540.627981,472
2026-09-11 19:25:40.635,1789165540.635673,548
2026-09-11 19:25:40.643,1789165540.6433654,640
2026-09-11 19:25:40.651,1789165540.6510577,771
2026-09-11 19:25:40.658,1789165540.65875,887
2026-09-11 19:25:40.666,1789165540.6664424,965
2026-09-11 19:25:40.674,1789165540.6741347,1023
2026-09-11 19:25:40.681,1789165540.681827,1035
2026-09-11 19:25:40.689,1789165540.6895194,996
2026-09-11 19:25:40.697,1789165540.6972115,919
2026-09-11 19:25:40.704,1789165540.7049038,797
2026-09-11 19:25:40.712,1789165540.7125962,642
2026-09-11 19:25:40.720,1789165540.7202885,472
2026-09-11 19:25:40.727,1789165540.7279809,298
2026-09-11 19:25:40.735,1789165540.7356732,133
2026-09-11 19:25:40.743,1789165540.7433655,38
2026-09-11 19:25:40.751,1789165540.7510579,7
2026-09-11 19:25:40.758,1789165540.75875,-12
2026-09-11 19:25:40.766,1789165540.7664423,-24
2026-09-11 19:25:40.774,1789165540.7741346,16
2026-09-11 19:25:40.781,1789165540.781827,189
2026-09-11 19:25:40.789,1789165540.7895193,443
2026-09-11 19:25:40.797,1789165540.7972116,591
2026-09-11 19:25:40.804,1789165540.804904,615
2026-09-11 19:25:40.812,1789165540.8125963,654
2026-09-11 19:25:40.820,1789165540.8202884,696
2026-09-11 19:25:40.827,1789165540.8279808,686
2026-09-11 19:25:40.835,1789165540.835673,686
2026-09-11 19:25:40.843,1789165540.8433654,696
2026-09-11 19:25:40.851,1789165540.8510578,647
2026-09-11 19:25:40.858,1789165540.85875,577
2026-09-11 19:25:40.866,1789165540.8664424,526
2026-09-11 19:25:40.874,1789165540.8741348,499
2026-09-11 19:25:40.881,1789165540.8818269,489
2026-09-11 19:25:40.889,1789165540.8895192,463
2026-09-11 19:25:40.897,1789165540.8972116,424
2026-09-11 19:25:40.904,1789165540.904904,424
2026-09-11 19:25:40.912,1789165540.9125962,441
2026-09-11 19:25:40.920,1789165540.9202886,438
2026-09-11 19:25:40.927,1789165540.927981,448
2026-09-11 19:25:40.935,1789165540.9356732,482
2026-09-11 19:25:40.943,1789165540.9433653,477
2026-09-11 19:25:40.951,1789165540.9510577,404
2026-09-11 19:25:40.958,1789165540.95875,324
2026-09-11 19:25:40.966,1789165540.9664423,230
2026-09-11 19:25:40.974,1789165540.9741347,58
2026-09-11 19:25:40.981,1789165540.981827,-164
2026-09-11 19:25:40.989,1789165540.9895194,-383
2026-09-11 19:25:40.997,1789165540.9972117,-548
2026-09-11 19:25:41.004,1789165541.0049038,-603
2026-09-11 19:25:41.012,1789165541.0125961,-560
2026-09-11 19:25:41.020,1789165541.0202885,-497
2026-09-11 19:25:41.027,1789165541.0279808,-468
2026-09-11 19:25:41.035,1789165541.0356731,-383
2026-09-11 19:25:41.043,1789165541.0433655,-109
2026-09-11 19:25:41.051,1789165541.0510578,378
2026-09-11 19:25:41.058,1789165541.0587502,851
2026-09-11 19:25:41.066,1789165541.0664423,858
2026-09-11 19:25:41.074,1789165541.0741346,113
2026-09-11 19:25:41.081,1789165541.081827,-708
2026-09-11 19:25:41.089,1789165541.0895193,-710
2026-09-11 19:25:41.097,1789165541.0972116,-426
2026-09-11 19:25:41.104,1789165541.104904,-550
2026-09-11 19:25:41.112,1789165541.1125963,-710
2026-09-11 19:25:41.120,1789165541.1202886,-696
2026-09-11 19:25:41.127,1789165541.127981,-720
2026-09-11 19:25:41.135,1789165541.135673,-771
2026-09-11 19:25:41.143,1789165541.1433654,-766
2026-09-11 19:25:41.151,1789165541.1510577,-737
2026-09-11 19:25:41.158,1789165541.1581578,-698
2026-09-11 19:25:41.165,1789165541.1658502,-620
2026-09-11 19:25:41.173,1789165541.1735425,-538
2026-09-11 19:25:41.181,1789165541.1812348,-477
2026-09-11 19:25:41.188,1789165541.1889272,-378
2026-09-11 19:25:41.196,1789165541.1966193,-230
2026-09-11 19:25:41.204,1789165541.2043116,-140
2026-09-11 19:25:41.212,1789165541.212004,-104
2026-09-11 19:25:41.219,1789165541.2196963,-50
2026-09-11 19:25:41.227,1789165541.2273886,4
2026-09-11 19:25:41.235,1789165541.235081,50
2026-09-11 19:25:41.242,1789165541.2427733,84
2026-09-11 19:25:41.250,1789165541.2504656,101
2026-09-11 19:25:41.258,1789165541.2581577,126
2026-09-11 19:25:41.265,1789165541.26585,167
2026-09-11 19:25:41.273,1789165541.2735424,208
2026-09-11 19:25:41.281,1789165541.2812347,232
2026-09-11 19:25:41.288,1789165541.288927,230
2026-09-11 19:25:41.296,1789165541.2966194,223
2026-09-11 19:25:41.304,1789165541.3043118,203
2026-09-11 19:25:41.312,1789165541.312004,145
2026-09-11 19:25:41.319,1789165541.3196962,77
2026-09-11 19:25:41.327,1789165541.3273885,48
2026-09-11 19:25:41.335,1789165541.3350809,29
2026-09-11 19:25:41.342,1789165541.3427732,-21
2026-09-11 19:25:41.350,1789165541.3504655,-65
2026-09-11 19:25:41.358,1789165541.3581579,-67
2026-09-11 19:25:41.365,1789165541.3658502,-60
2026-09-11 19:25:41.373,1789165541.3735425,-58
2026-09-11 19:25:41.381,1789165541.3812346,-46
2026-09-11 19:25:41.388,1789165541.388927,-38
2026-09-11 19:25:41.396,1789165541.3966193,-41
2026-09-11 19:25:41.404,1789165541.4043117,-19
2026-09-11 19:25:41.412,1789165541.412004,16
2026-09-11 19:25:41.419,1789165541.4196963,24
2026-09-11 19:25:41.427,1789165541.4273887,-2
2026-09-11 19:25:41.435,1789165541.435081,-46
2026-09-11 19:25:41.442,1789165541.442773,-92
2026-09-11 19:25:41.450,1789165541.4504654,-152
2026-09-11 19:25:41.458,1789165541.4581578,-210
2026-09-11 19:25:41.465,1789165541.46585,-220
2026-09-11 19:25:41.473,1789165541.4735425,-198
2026-09-11 19:25:41.481,1789165541.4812348,-215
2026-09-11 19:25:41.488,1789165541.4889271,-259
2026-09-11 19:25:41.496,1789165541.4966195,-286
2026-09-11 19:25:41.504,1789165541.5043116,-320
2026-09-11 19:25:41.512,1789165541.512004,-354
2026-09-11 19:25:41.519,1789165541.5196962,-349
2026-09-11 19:25:41.527,1789165541.5273886,-329
2026-09-11 19:25:41.535,1789165541.535081,-315
2026-09-11 19:25:41.542,1789165541.5427732,-305
2026-09-11 19:25:41.550,1789165541.5504656,-324
2026-09-11 19:25:41.558,1789165541.558158,-361
2026-09-11 19:25:41.565,1789165541.56585,-388
2026-09-11 19:25:41.573,1789165541.5735424,-414
2026-09-11 19:25:41.581,1789165541.5812347,-453
2026-09-11 19:25:41.588,1789165541.588927,-472
2026-09-11 19:25:41.596,1789165541.5966194,-472
2026-09-11 19:25:41.604,1789165541.6043117,-468
2026-09-11 19:25:41.612,1789165541.612004,-458
2026-09-11 19:25:41.619,1789165541.6196964,-453
2026-09-11 19:25:41.627,1789165541.6273885,-455
2026-09-11 19:25:41.635,1789165541.6350808,-409
2026-09-11 19:25:41.642,1789165541.6427732,-223
2026-09-11 19:25:41.650,1789165541.6504655,121
2026-09-11 19:25:41.658,1789165541.6581578,487
2026-09-11 19:25:41.665,1789165541.6658502,557
2026-09-11 19:25:41.673,1789165541.6735425,-33
2026-09-11 19:25:41.681,1789165541.6812348,-797
2026-09-11 19:25:41.688,1789165541.6889272,-800
2026-09-11 19:25:41.696,1789165541.6966193,-436
2026-09-11 19:25:41.704,1789165541.7043116,-455
2026-09-11 19:25:41.712,1789165541.712004,-535
2026-09-11 19:25:41.719,1789165541.7191346,-434
2026-09-11 19:25:41.726,1789165541.726827,-400
2026-09-11 19:25:41.734,1789165541.7345192,-404
2026-09-11 19:25:41.742,1789165541.7422116,-329
2026-09-11 19:25:41.749,1789165541.749904,-271
2026-09-11 19:25:41.757,1789165541.757596,-274
2026-09-11 19:25:41.765,1789165541.7652884,-266
2026-09-11 19:25:41.772,1789165541.7729807,-242
2026-09-11 19:25:41.780,1789165541.780673,-215
2026-09-11 19:25:41.788,1789165541.7883654,-184
2026-09-11 19:25:41.796,1789165541.7960577,-157
2026-09-11 19:25:41.803,1789165541.80375,-140
2026-09-11 19:25:41.811,1789165541.8114424,-111
2026-09-11 19:25:41.819,1789165541.8191345,-70
2026-09-11 19:25:41.826,1789165541.8268268,-19
2026-09-11 19:25:41.834,1789165541.8345191,33
2026-09-11 19:25:41.842,1789165541.8422115,53
2026-09-11 19:25:41.849,1789165541.8499038,31
2026-09-11 19:25:41.857,1789165541.8575962,-29
2026-09-11 19:25:41.865,1789165541.8652885,-99
2026-09-11 19:25:41.872,1789165541.8729808,-143
2026-09-11 19:25:41.880,1789165541.880673,-160
2026-09-11 19:25:41.888,1789165541.8883653,-181
2026-09-11 19:25:41.896,1789165541.8960576,-218
2026-09-11 19:25:41.903,1789165541.90375,-257
2026-09-11 19:25:41.911,1789165541.9114423,-295
2026-09-11 19:25:41.919,1789165541.9191346,-339
2026-09-11 19:25:41.926,1789165541.926827,-388
2026-09-11 19:25:41.934,1789165541.9345193,-419
2026-09-11 19:25:41.942,1789165541.9422114,-431
2026-09-11 19:25:41.949,1789165541.9499037,-441
2026-09-11 19:25:41.957,1789165541.957596,-446
2026-09-11 19:25:41.965,1789165541.9652884,-438
2026-09-11 19:25:41.972,1789165541.9729807,-429
2026-09-11 19:25:41.980,1789165541.980673,-417
2026-09-11 19:25:41.988,1789165541.9883654,-395
2026-09-11 19:25:41.996,1789165541.9960577,-375
2026-09-11 19:25:42.003,1789165542.0037498,-358
2026-09-11 19:25:42.011,1789165542.0114422,-344
2026-09-11 19:25:42.019,1789165542.0191345,-334
2026-09-11 19:25:42.026,1789165542.0268269,-329
2026-09-11 19:25:42.034,1789165542.0345192,-322
2026-09-11 19:25:42.042,1789165542.0422115,-312
2026-09-11 19:25:42.049,1789165542.0499039,-305
2026-09-11 19:25:42.057,1789165542.0575962,-303
2026-09-11 19:25:42.065,1789165542.0652883,-300
2026-09-11 19:25:42.072,1789165542.0729806,-295
2026-09-11 19:25:42.080,1789165542.080673,-291
2026-09-11 19:25:42.088,1789165542.0883653,-288
2026-09-11 19:25:42.096,1789165542.0960577,-281
2026-09-11 19:25:42.103,1789165542.10375,-274
2026-09-11 19:25:42.111,1789165542.1114423,-269
2026-09-11 19:25:42.119,1789165542.1191347,-264
2026-09-11 19:25:42.126,1789165542.1268268,-254
2026-09-11 19:25:42.134,1789165542.134519,-227
2026-09-11 19:25:42.142,1789165542.1422114,-194
2026-09-11 19:25:42.149,1789165542.1499038,-174
2026-09-11 19:25:42.157,1789165542.157596,-179
2026-09-11 19:25:42.165,1789165542.1652884,-201
2026-09-11 19:25:42.172,1789165542.1729808,-220
2026-09-11 19:25:42.180,1789165542.1806731,-218
2026-09-11 19:25:42.188,1789165542.1883652,-201
2026-09-11 19:25:42.196,1789165542.1960576,-186
2026-09-11 19:25:42.203,1789165542.20375,-174
2026-09-11 19:25:42.211,1789165542.2114422,-167
2026-09-11 19:25:42.219,1789165542.2191346,-162
2026-09-11 19:25:42.226,1789165542.226827,-162
2026-09-11 19:25:42.234,1789165542.2345192,-162
2026-09-11 19:25:42.242,1789165542.2422116,-123
2026-09-11 19:25:42.249,1789165542.249904,14
2026-09-11 19:25:42.257,1789165542.257596,278
2026-09-11 19:25:42.265,1789165542.2652884,618
2026-09-11 19:25:42.272,1789165542.2729807,892
2026-09-11 19:25:42.280,1789165542.2800808,611
2026-09-11 19:25:42.287,1789165542.2877731,-237
2026-09-11 19:25:42.295,1789165542.2954655,-594
2026-09-11 19:25:42.303,1789165542.3031578,-252
2026-09-11 19:25:42.310,1789165542.3108501,-128
2026-09-11 19:25:42.318,1789165542.3185422,-274
2026-09-11 19:25:42.326,1789165542.3262346,-252
2026-09-11 19:25:42.333,1789165542.333927,-196
2026-09-11 19:25:42.341,1789165542.3416193,-230
2026-09-11 19:25:42.349,1789165542.3493116,-227
2026-09-11 19:25:42.357,1789165542.357004,-210
2026-09-11 19:25:42.364,1789165542.3646963,-220
2026-09-11 19:25:42.372,1789165542.3723886,-206
2026-09-11 19:25:42.380,1789165542.3800807,-184
2026-09-11 19:25:42.387,1789165542.387773,-177
2026-09-11 19:25:42.395,1789165542.3954654,-167
2026-09-11 19:25:42.403,1789165542.4031577,-152
2026-09-11 19:25:42.410,1789165542.41085,-147
2026-09-11 19:25:42.418,1789165542.4185424,-135
2026-09-11 19:25:42.426,1789165542.4262347,-101
2026-09-11 19:25:42.433,1789165542.433927,-60
2026-09-11 19:25:42.441,1789165542.4416192,-36
2026-09-11 19:25:42.449,1789165542.4493115,-21
2026-09-11 19:25:42.457,1789165542.4570038,-2
2026-09-11 19:25:42.464,1789165542.4646962,12
2026-09-11 19:25:42.472,1789165542.4723885,14
2026-09-11 19:25:42.480,1789165542.4800808,9
2026-09-11 19:25:42.487,1789165542.4877732,0
2026-09-11 19:25:42.495,1789165542.4954655,-9
2026-09-11 19:25:42.503,1789165542.5031576,-21
2026-09-11 19:25:42.510,1789165542.51085,-46
2026-09-11 19:25:42.518,1789165542.5185423,-80
2026-09-11 19:25:42.526,1789165542.5262346,-113
2026-09-11 19:25:42.533,1789165542.533927,-145
2026-09-11 19:25:42.541,1789165542.5416193,-174
2026-09-11 19:25:42.549,1789165542.5493116,-201
2026-09-11 19:25:42.557,1789165542.557004,-218
2026-09-11 19:25:42.564,1789165542.564696,-223
2026-09-11 19:25:42.572,1789165542.5723884,-223
2026-09-11 19:25:42.580,1789165542.5800807,-223
2026-09-11 19:25:42.587,1789165542.587773,-220
2026-09-11 19:25:42.595,1789165542.5954654,-208
2026-09-11 19:25:42.603,1789165542.6031578,-196
2026-09-11 19:25:42.610,1789165542.61085,-189
2026-09-11 19:25:42.618,1789165542.6185424,-174
2026-09-11 19:25:42.626,1789165542.6262345,-150
2026-09-11 19:25:42.633,1789165542.6339269,-135
2026-09-11 19:25:42.641,1789165542.6416192,-135
2026-09-11 19:25:42.649,1789165542.6493115,-138
2026-09-11 19:25:42.657,1789165542.6570039,-135
2026-09-11 19:25:42.664,1789165542.6646962,-140
2026-09-11 19:25:42.672,1789165542.6723886,-143
2026-09-11 19:25:42.680,1789165542.680081,-135
2026-09-11 19:25:42.687,1789165542.687773,-130
2026-09-11 19:25:42.695,1789165542.6954653,-126
2026-09-11 19:25:42.703,1789165542.7031577,-113
2026-09-11 19:25:42.710,1789165542.71085,-104
2026-09-11 19:25:42.718,1789165542.7185423,-109
2026-09-11 19:25:42.726,1789165542.7262347,-116
2026-09-11 19:25:42.733,1789165542.733927,-111
2026-09-11 19:25:42.741,1789165542.7416193,-109
2026-09-11 19:25:42.749,1789165542.7493114,-126
2026-09-11 19:25:42.757,1789165542.7570038,-138
2026-09-11 19:25:42.764,1789165542.7646961,-135
2026-09-11 19:25:42.772,1789165542.7723885,-133
2026-09-11 19:25:42.780,1789165542.7800808,-130
2026-09-11 19:25:42.787,1789165542.7877731,-121
2026-09-11 19:25:42.795,1789165542.7954655,-104
2026-09-11 19:25:42.803,1789165542.8031578,-80
2026-09-11 19:25:42.810,1789165542.8108501,-55
2026-09-11 19:25:42.818,1789165542.8185422,-53
2026-09-11 19:25:42.826,1789165542.8262346,-80
2026-09-11 19:25:42.833,1789165542.833927,-113
2026-09-11 19:25:42.841,1789165542.8410273,-140
2026-09-11 19:25:42.848,1789165542.8487196,-152
2026-09-11 19:25:42.856,1789165542.856412,-150
2026-09-11 19:25:42.864,1789165542.8641043,-147
2026-09-11 19:25:42.871,1789165542.8717966,-147
2026-09-11 19:25:42.879,1789165542.8794887,-150
2026-09-11 19:25:42.887,1789165542.887181,-152
2026-09-11 19:25:42.894,1789165542.8948734,-152
2026-09-11 19:25:42.902,1789165542.9025657,-128
2026-09-11 19:25:42.910,1789165542.910258,-7
2026-09-11 19:25:42.917,1789165542.9179504,230
2026-09-11 19:25:42.925,1789165542.9256427,533
2026-09-11 19:25:42.933,1789165542.933335,829
2026-09-11 19:25:42.941,1789165542.9410272,674
2026-09-11 19:25:42.948,1789165542.9487195,-128
2026-09-11 19:25:42.956,1789165542.9564118,-586
2026-09-11 19:25:42.964,1789165542.9641042,-269
2026-09-11 19:25:42.971,1789165542.9717965,-67
2026-09-11 19:25:42.979,1789165542.9794888,-186
2026-09-11 19:25:42.987,1789165542.9871812,-162
2026-09-11 19:25:42.994,1789165542.9948735,-82
2026-09-11 19:25:43.002,1789165543.0025656,-101
2026-09-11 19:25:43.010,1789165543.010258,-87
2026-09-11 19:25:43.017,1789165543.0179503,-36
2026-09-11 19:25:43.025,1789165543.0256426,-29
2026-09-11 19:25:43.033,1789165543.033335,-31
2026-09-11 19:25:43.041,1789165543.0410273,-14
2026-09-11 19:25:43.048,1789165543.0487196,-14
2026-09-11 19:25:43.056,1789165543.056412,-29
2026-09-11 19:25:43.064,1789165543.064104,-21
2026-09-11 19:25:43.071,1789165543.0717964,-7
2026-09-11 19:25:43.079,1789165543.0794888,-4
2026-09-11 19:25:43.087,1789165543.087181,-4
2026-09-11 19:25:43.094,1789165543.0948734,4
2026-09-11 19:25:43.102,1789165543.1025658,24
2026-09-11 19:25:43.110,1789165543.110258,36
2026-09-11 19:25:43.117,1789165543.1179504,38
2026-09-11 19:25:43.125,1789165543.1256425,41
2026-09-11 19:25:43.133,1789165543.1333349,46
2026-09-11 19:25:43.141,1789165543.1410272,48
2026-09-11 19:25:43.148,1789165543.1487195,46
2026-09-11 19:25:43.156,1789165543.156412,41
2026-09-11 19:25:43.164,1789165543.1641042,33
2026-09-11 19:25:43.171,1789165543.1717966,12
2026-09-11 19:25:43.179,1789165543.179489,-12
2026-09-11 19:25:43.187,1789165543.187181,-29
2026-09-11 19:25:43.194,1789165543.1948733,-48
2026-09-11 19:25:43.202,1789165543.2025657,-82
2026-09-11 19:25:43.210,1789165543.210258,-113
2026-09-11 19:25:43.217,1789165543.2179503,-111
2026-09-11 19:25:43.225,1789165543.2256427,-87
2026-09-11 19:25:43.233,1789165543.233335,-82
2026-09-11 19:25:43.241,1789165543.2410274,-92
2026-09-11 19:25:43.248,1789165543.2487195,-92
2026-09-11 19:25:43.256,1789165543.2564118,-87
2026-09-11 19:25:43.264,1789165543.2641041,-80
2026-09-11 19:25:43.271,1789165543.2717965,-75
2026-09-11 19:25:43.279,1789165543.2794888,-58
2026-09-11 19:25:43.287,1789165543.2871811,-26
2026-09-11 19:25:43.294,1789165543.2948735,-19
2026-09-11 19:25:43.302,1789165543.3025658,-36
2026-09-11 19:25:43.310,1789165543.310258,-46
2026-09-11 19:25:43.317,1789165543.3179502,-53
2026-09-11 19:25:43.325,1789165543.3256426,-55
2026-09-11 19:25:43.333,1789165543.333335,-43
2026-09-11 19:25:43.341,1789165543.3410273,-26
2026-09-11 19:25:43.348,1789165543.3487196,-26
2026-09-11 19:25:43.356,1789165543.356412,-48
2026-09-11 19:25:43.364,1789165543.3641043,-55
2026-09-11 19:25:43.371,1789165543.3717966,-41
2026-09-11 19:25:43.379,1789165543.3794887,-31
2026-09-11 19:25:43.387,1789165543.387181,-26
2026-09-11 19:25:43.394,1789165543.3948734,-24
2026-09-11 19:25:43.402,1789165543.4020038,-24
2026-09-11 19:25:43.409,1789165543.409696,-26
2026-09-11 19:25:43.417,1789165543.4173884,-38
2026-09-11 19:25:43.425,1789165543.4250808,-55
2026-09-11 19:25:43.432,1789165543.432773,-65
2026-09-11 19:25:43.440,1789165543.4404652,-67
2026-09-11 19:25:43.448,1789165543.4481575,-67
2026-09-11 19:25:43.455,1789165543.45585,-60
2026-09-11 19:25:43.463,1789165543.4635422,-41
2026-09-11 19:25:43.471,1789165543.4712346,-24
2026-09-11 19:25:43.478,1789165543.478927,-24
2026-09-11 19:25:43.486,1789165543.4866192,-29
2026-09-11 19:25:43.494,1789165543.4943116,-19
2026-09-11 19:25:43.502,1789165543.5020037,-4
2026-09-11 19:25:43.509,1789165543.509696,7
2026-09-11 19:25:43.517,1789165543.5173883,9
2026-09-11 19:25:43.525,1789165543.5250807,2
2026-09-11 19:25:43.532,1789165543.532773,-12
2026-09-11 19:25:43.540,1789165543.5404654,-9
2026-09-11 19:25:43.548,1789165543.5481577,19
2026-09-11 19:25:43.555,1789165543.55585,48
2026-09-11 19:25:43.563,1789165543.5635421,41
2026-09-11 19:25:43.571,1789165543.5712345,21
2026-09-11 19:25:43.578,1789165543.5789268,46
2026-09-11 19:25:43.586,1789165543.5866191,63
2026-09-11 19:25:43.594,1789165543.5943115,46
2026-09-11 19:25:43.602,1789165543.6020038,48
2026-09-11 19:25:43.609,1789165543.6096961,50
2026-09-11 19:25:43.617,1789165543.6173885,31
2026-09-11 19:25:43.625,1789165543.6250806,26
2026-09-11 19:25:43.632,1789165543.632773,38
2026-09-11 19:25:43.640,1789165543.6404653,46
2026-09-11 19:25:43.648,1789165543.6481576,48
2026-09-11 19:25:43.655,1789165543.65585,31
2026-09-11 19:25:43.663,1789165543.6635423,-21
2026-09-11 19:25:43.671,1789165543.6712346,-80
2026-09-11 19:25:43.678,1789165543.678927,-92
2026-09-11 19:25:43.686,1789165543.686619,-16
2026-09-11 19:25:43.694,1789165543.6943114,169
2026-09-11 19:25:43.702,1789165543.7020037,448
2026-09-11 19:25:43.709,1789165543.709696,761
2026-09-11 19:25:43.717,1789165543.7173884,683
2026-09-11 19:25:43.725,1789165543.7250807,-63
2026-09-11 19:25:43.732,1789165543.732773,-586
2026-09-11 19:25:43.740,1789165543.7404654,-358
2026-09-11 19:25:43.748,1789165543.7481575,-174
2026-09-11 19:25:43.755,1789165543.7558498,-293
2026-09-11 19:25:43.763,1789165543.7635422,-293
2026-09-11 19:25:43.771,1789165543.7712345,-225
2026-09-11 19:25:43.778,1789165543.7789268,-257
2026-09-11 19:25:43.786,1789165543.7866192,-271
2026-09-11 19:25:43.794,1789165543.7943115,-244
2026-09-11 19:25:43.802,1789165543.8020039,-235
2026-09-11 19:25:43.809,1789165543.809696,-225
2026-09-11 19:25:43.817,1789165543.8173883,-201
2026-09-11 19:25:43.825,1789165543.8250806,-184
2026-09-11 19:25:43.832,1789165543.832773,-172
2026-09-11 19:25:43.840,1789165543.8404653,-160
2026-09-11 19:25:43.848,1789165543.8481576,-143
2026-09-11 19:25:43.855,1789165543.85585,-123
2026-09-11 19:25:43.863,1789165543.8635423,-111
2026-09-11 19:25:43.871,1789165543.8712344,-94
2026-09-11 19:25:43.878,1789165543.8789268,-67
2026-09-11 19:25:43.886,1789165543.886619,-55
2026-09-11 19:25:43.894,1789165543.8943114,-48
2026-09-11 19:25:43.902,1789165543.9020038,-33
2026-09-11 19:25:43.909,1789165543.909696,-36
2026-09-11 19:25:43.917,1789165543.9173884,-43
2026-09-11 19:25:43.925,1789165543.9250808,-41
2026-09-11 19:25:43.932,1789165543.932773,-41
2026-09-11 19:25:43.940,1789165543.9404652,-38
2026-09-11 19:25:43.948,1789165543.9481575,-33
2026-09-11 19:25:43.955,1789165543.95585,-43
2026-09-11 19:25:43.962,1789165543.9629502,-70
2026-09-11 19:25:43.970,1789165543.9706426,-97
2026-09-11 19:25:43.978,1789165543.978335,-118
2026-09-11 19:25:43.986,1789165543.9860272,-145
2026-09-11 19:25:43.993,1789165543.9937196,-172
2026-09-11 19:25:44.001,1789165544.0014117,-186
2026-09-11 19:25:44.009,1789165544.009104,-184
2026-09-11 19:25:44.016,1789165544.0167964,-172
2026-09-11 19:25:44.024,1789165544.0244887,-181
2026-09-11 19:25:44.032,1789165544.032181,-184
2026-09-11 19:25:44.039,1789165544.0398734,-164
2026-09-11 19:25:44.047,1789165544.0475657,-155
2026-09-11 19:25:44.055,1789165544.055258,-152
2026-09-11 19:25:44.062,1789165544.0629501,-150
2026-09-11 19:25:44.070,1789165544.0706425,-147
2026-09-11 19:25:44.078,1789165544.0783348,-147
2026-09-11 19:25:44.086,1789165544.0860271,-143
2026-09-11 19:25:44.093,1789165544.0937195,-133
2026-09-11 19:25:44.101,1789165544.1014118,-133
2026-09-11 19:25:44.109,1789165544.1091042,-147
2026-09-11 19:25:44.116,1789165544.1167965,-164
2026-09-11 19:25:44.124,1789165544.1244886,-147
2026-09-11 19:25:44.132,1789165544.132181,-75
2026-09-11 19:25:44.139,1789165544.1398733,-7
2026-09-11 19:25:44.147,1789165544.1475656,9
2026-09-11 19:25:44.155,1789165544.155258,19
2026-09-11 19:25:44.162,1789165544.1629503,41
2026-09-11 19:25:44.170,1789165544.1706426,50
2026-09-11 19:25:44.178,1789165544.178335,55
2026-09-11 19:25:44.186,1789165544.186027,63
2026-09-11 19:25:44.193,1789165544.1937194,65
2026-09-11 19:25:44.201,1789165544.2014117,63
2026-09-11 19:25:44.209,1789165544.209104,55
2026-09-11 19:25:44.216,1789165544.2167964,70
2026-09-11 19:25:44.224,1789165544.2244887,111
2026-09-11 19:25:44.232,1789165544.232181,116
2026-09-11 19:25:44.239,1789165544.2398734,80
2026-09-11 19:25:44.247,1789165544.2475655,46
2026-09-11 19:25:44.255,1789165544.2552578,43
2026-09-11 19:25:44.262,1789165544.2629502,36
2026-09-11 19:25:44.270,1789165544.2706425,29
2026-09-11 19:25:44.278,1789165544.2783349,41
2026-09-11 19:25:44.286,1789165544.2860272,55
2026-09-11 19:25:44.293,1789165544.2937195,60
2026-09-11 19:25:44.301,1789165544.3014119,63
2026-09-11 19:25:44.309,1789165544.309104,50
2026-09-11 19:25:44.316,1789165544.3167963,26
2026-09-11 19:25:44.324,1789165544.3244886,14
2026-09-11 19:25:44.332,1789165544.332181,16
2026-09-11 19:25:44.339,1789165544.3398733,12
2026-09-11 19:25:44.347,1789165544.3475657,19
2026-09-11 19:25:44.355,1789165544.355258,19
2026-09-11 19:25:44.362,1789165544.3629503,12
2026-09-11 19:25:44.370,1789165544.3706424,21
2026-09-11 19:25:44.378,1789165544.3783348,48
2026-09-11 19:25:44.386,1789165544.386027,70
2026-09-11 19:25:44.393,1789165544.3937194,75
2026-09-11 19:25:44.401,1789165544.4014118,89
2026-09-11 19:25:44.409,1789165544.409104,135
2026-09-11 19:25:44.416,1789165544.4167964,177
2026-09-11 19:25:44.424,1789165544.4244888,179
2026-09-11 19:25:44.432,1789165544.432181,167
2026-09-11 19:25:44.439,1789165544.4398732,135
2026-09-11 19:25:44.447,1789165544.4475656,94
2026-09-11 19:25:44.455,1789165544.455258,75
2026-09-11 19:25:44.462,1789165544.4629502,58
2026-09-11 19:25:44.470,1789165544.4706426,7
2026-09-11 19:25:44.478,1789165544.478335,-33
2026-09-11 19:25:44.486,1789165544.4860272,-31
2026-09-11 19:25:44.493,1789165544.4937196,-12
2026-09-11 19:25:44.501,1789165544.5014117,-9
2026-09-11 19:25:44.509,1789165544.509104,-26
2026-09-11 19:25:44.516,1789165544.5167964,-53
2026-09-11 19:25:44.523,1789165544.523927,-70
2026-09-11 19:25:44.531,1789165544.5316193,-46
2026-09-11 19:25:44.539,1789165544.5393116,63
2026-09-11 19:25:44.547,1789165544.547004,261
2026-09-11 19:25:44.554,1789165544.5546963,531
2026-09-11 19:25:44.562,1789165544.5623884,669
2026-09-11 19:25:44.570,1789165544.5700808,257
2026-09-11 19:25:44.577,1789165544.577773,-366
2026-09-11 19:25:44.585,1789165544.5854654,-400
2026-09-11 19:25:44.593,1789165544.5931578,-121
2026-09-11 19:25:44.600,1789165544.60085,-106
2026-09-11 19:25:44.608,1789165544.6085424,-157
2026-09-11 19:25:44.616,1789165544.6162348,-109
2026-09-11 19:25:44.623,1789165544.6239269,-97
2026-09-11 19:25:44.631,1789165544.6316192,-97
2026-09-11 19:25:44.639,1789165544.6393116,-67
2026-09-11 19:25:44.647,1789165544.647004,-67
2026-09-11 19:25:44.654,1789165544.6546962,-99
2026-09-11 19:25:44.662,1789165544.6623886,-106
2026-09-11 19:25:44.670,1789165544.670081,-77
2026-09-11 19:25:44.677,1789165544.6777732,-67
2026-09-11 19:25:44.685,1789165544.6854653,-67
2026-09-11 19:25:44.693,1789165544.6931577,-38
2026-09-11 19:25:44.700,1789165544.70085,-21
2026-09-11 19:25:44.708,1789165544.7085423,-58
2026-09-11 19:25:44.716,1789165544.7162347,-82
2026-09-11 19:25:44.723,1789165544.723927,-53
2026-09-11 19:25:44.731,1789165544.7316194,-19
2026-09-11 19:25:44.739,1789165544.7393117,0
2026-09-11 19:25:44.747,1789165544.7470038,26
2026-09-11 19:25:44.754,1789165544.7546961,36
2026-09-11 19:25:44.762,1789165544.7623885,14
2026-09-11 19:25:44.770,1789165544.7700808,4
2026-09-11 19:25:44.777,1789165544.7777731,14
2026-09-11 19:25:44.785,1789165544.7854655,12
2026-09-11 19:25:44.793,1789165544.7931578,4
2026-09-11 19:25:44.800,1789165544.8008502,2
2026-09-11 19:25:44.808,1789165544.8085423,0
2026-09-11 19:25:44.816,1789165544.8162346,-12
2026-09-11 19:25:44.823,1789165544.823927,-41
2026-09-11 19:25:44.831,1789165544.8316193,-65
2026-09-11 19:25:44.839,1789165544.8393116,-84
2026-09-11 19:25:44.847,1789165544.847004,-113
2026-09-11 19:25:44.854,1789165544.8546963,-152
2026-09-11 19:25:44.862,1789165544.8623886,-191
2026-09-11 19:25:44.870,1789165544.8700807,-215
2026-09-11 19:25:44.877,1789165544.877773,-220
2026-09-11 19:25:44.885,1789165544.8854654,-218
2026-09-11 19:25:44.893,1789165544.8931577,-203
2026-09-11 19:25:44.900,1789165544.90085,-194
2026-09-11 19:25:44.908,1789165544.9085424,-194
2026-09-11 19:25:44.916,1789165544.9162347,-181
2026-09-11 19:25:44.923,1789165544.923927,-172
2026-09-11 19:25:44.931,1789165544.9316192,-174
2026-09-11 19:25:44.939,1789165544.9393115,-181
2026-09-11 19:25:44.947,1789165544.9470038,-194
2026-09-11 19:25:44.954,1789165544.9546962,-198
2026-09-11 19:25:44.962,1789165544.9623885,-189
2026-09-11 19:25:44.970,1789165544.9700809,-198
2026-09-11 19:25:44.977,1789165544.9777732,-227
2026-09-11 19:25:44.985,1789165544.9854655,-227
2026-09-11 19:25:44.993,1789165544.9931576,-220
2026-09-11 19:25:45.000,1789165545.00085,-225
2026-09-11 19:25:45.008,1789165545.0085423,-215
2026-09-11 19:25:45.016,1789165545.0162346,-191
2026-09-11 19:25:45.023,1789165545.023927,-181
2026-09-11 19:25:45.031,1789165545.0316193,-189
2026-09-11 19:25:45.039,1789165545.0393116,-196
2026-09-11 19:25:45.047,1789165545.047004,-189
2026-09-11 19:25:45.054,1789165545.0546963,-179
2026-09-11 19:25:45.062,1789165545.0623884,-177
2026-09-11 19:25:45.070,1789165545.0700808,-181
2026-09-11 19:25:45.077,1789165545.077773,-179
2026-09-11 19:25:45.084,1789165545.0848734,-186
2026-09-11 19:25:45.092,1789165545.0925658,-196
2026-09-11 19:25:45.100,1789165545.100258,-177
2026-09-11 19:25:45.107,1789165545.1079504,-135
2026-09-11 19:25:45.115,1789165545.1156428,-99
2026-09-11 19:25:45.123,1789165545.123335,-82
2026-09-11 19:25:45.131,1789165545.1310272,-84
2026-09-11 19:25:45.138,1789165545.1387196,-94
2026-09-11 19:25:45.146,1789165545.146412,-97
2026-09-11 19:25:45.154,1789165545.1541042,-82
2026-09-11 19:25:45.161,1789165545.1617966,-65
2026-09-11 19:25:45.169,1789165545.169489,-53
2026-09-11 19:25:45.177,1789165545.1771812,-16
2026-09-11 19:25:45.184,1789165545.1848733,24
2026-09-11 19:25:45.192,1789165545.1925657,24
2026-09-11 19:25:45.200,1789165545.200258,9
2026-09-11 19:25:45.207,1789165545.2079504,21
2026-09-11 19:25:45.215,1789165545.2156427,60
2026-09-11 19:25:45.223,1789165545.223335,94
2026-09-11 19:25:45.231,1789165545.2310274,106
2026-09-11 19:25:45.238,1789165545.2387197,126
2026-09-11 19:25:45.246,1789165545.2464118,152
2026-09-11 19:25:45.254,1789165545.2541041,157
2026-09-11 19:25:45.261,1789165545.2617965,123
2026-09-11 19:25:45.269,1789165545.2694888,77
2026-09-11 19:25:45.277,1789165545.2771811,41
2026-09-11 19:25:45.284,1789165545.2848735,14
2026-09-11 19:25:45.292,1789165545.2925658,4
2026-09-11 19:25:45.300,1789165545.3002582,14
2026-09-11 19:25:45.307,1789165545.3079503,31
2026-09-11 19:25:45.315,1789165545.3156426,48
2026-09-11 19:25:45.323,1789165545.323335,67
2026-09-11 19:25:45.331,1789165545.3310273,67
2026-09-11 19:25:45.338,1789165545.3387196,53
2026-09-11 19:25:45.346,1789165545.346412,92
2026-09-11 19:25:45.354,1789165545.3541043,254
2026-09-11 19:25:45.361,1789165545.3617966,506
2026-09-11 19:25:45.369,1789165545.3694887,790
2026-09-11 19:25:45.377,1789165545.377181,773
2026-09-11 19:25:45.384,1789165545.3848734,109
2026-09-11 19:25:45.392,1789165545.3925657,-509
2026-09-11 19:25:45.400,1789165545.400258,-395
2026-09-11 19:25:45.407,1789165545.4079504,-162
2026-09-11 19:25:45.415,1789165545.4156427,-227
2026-09-11 19:25:45.423,1789165545.423335,-252
2026-09-11 19:25:45.431,1789165545.4310272,-189
2026-09-11 19:25:45.438,1789165545.4387195,-181
2026-09-11 19:25:45.446,1789165545.4464118,-155
2026-09-11 19:25:45.454,1789165545.4541042,-106
2026-09-11 19:25:45.461,1789165545.4617965,-111
2026-09-11 19:25:45.469,1789165545.4694889,-126
2026-09-11 19:25:45.477,1789165545.4771812,-109
2026-09-11 19:25:45.484,1789165545.4848735,-106
2026-09-11 19:25:45.492,1789165545.4925656,-111
2026-09-11 19:25:45.500,1789165545.500258,-97
2026-09-11 19:25:45.507,1789165545.5079503,-80
2026-09-11 19:25:45.515,1789165545.5156426,-72
2026-09-11 19:25:45.523,1789165545.523335,-53
2026-09-11 19:25:45.531,1789165545.5310273,-29
2026-09-11 19:25:45.538,1789165545.5387197,-16
2026-09-11 19:25:45.546,1789165545.546412,2
2026-09-11 19:25:45.554,1789165545.554104,41
2026-09-11 19:25:45.561,1789165545.5617964,67
2026-09-11 19:25:45.569,1789165545.5694888,65
2026-09-11 19:25:45.577,1789165545.577181,63
2026-09-11 19:25:45.584,1789165545.5848734,67
2026-09-11 19:25:45.592,1789165545.5925658,80
2026-09-11 19:25:45.600,1789165545.600258,97
2026-09-11 19:25:45.607,1789165545.6079504,109
2026-09-11 19:25:45.615,1789165545.6156428,89
2026-09-11 19:25:45.623,1789165545.623335,60
2026-09-11 19:25:45.631,1789165545.6310272,41
2026-09-11 19:25:45.638,1789165545.6387196,2
2026-09-11 19:25:45.645,1789165545.6458297,-67
2026-09-11 19:25:45.653,1789165545.653522,-130
2026-09-11 19:25:45.661,1789165545.6612144,-157
2026-09-11 19:25:45.668,1789165545.6689067,-157
2026-09-11 19:25:45.676,1789165545.676599,-147
2026-09-11 19:25:45.684,1789165545.6842911,-150
2026-09-11 19:25:45.691,1789165545.6919835,-167
2026-09-11 19:25:45.699,1789165545.6996758,-174
2026-09-11 19:25:45.707,1789165545.7073681,-177
2026-09-11 19:25:45.715,1789165545.7150605,-172
2026-09-11 19:25:45.722,1789165545.7227528,-155
2026-09-11 19:25:45.730,1789165545.7304451,-133
2026-09-11 19:25:45.738,1789165545.7381375,-111
2026-09-11 19:25:45.745,1789165545.7458296,-101
2026-09-11 19:25:45.753,1789165545.753522,-104
2026-09-11 19:25:45.761,1789165545.7612143,-99
2026-09-11 19:25:45.768,1789165545.7689066,-94
2026-09-11 19:25:45.776,1789165545.776599,-99
2026-09-11 19:25:45.784,1789165545.7842913,-97
2026-09-11 19:25:45.791,1789165545.7919836,-89
2026-09-11 19:25:45.799,1789165545.799676,-84
2026-09-11 19:25:45.807,1789165545.807368,-87
2026-09-11 19:25:45.815,1789165545.8150604,-94
2026-09-11 19:25:45.822,1789165545.8227527,-97
2026-09-11 19:25:45.830,1789165545.830445,-99
2026-09-11 19:25:45.838,1789165545.8381374,-97
2026-09-11 19:25:45.845,1789165545.8458297,-89
2026-09-11 19:25:45.853,1789165545.853522,-82
2026-09-11 19:25:45.861,1789165545.8612144,-77
2026-09-11 19:25:45.868,1789165545.8689065,-75
2026-09-11 19:25:45.876,1789165545.8765988,-72
2026-09-11 19:25:45.884,1789165545.8842912,-67
2026-09-11 19:25:45.891,1789165545.8919835,-55
2026-09-11 19:25:45.899,1789165545.8996758,-31
2026-09-11 19:25:45.907,1789165545.9073682,-24
2026-09-11 19:25:45.915,1789165545.9150605,-29
2026-09-11 19:25:45.922,1789165545.9227529,-9
2026-09-11 19:25:45.930,1789165545.930445,26
2026-09-11 19:25:45.938,1789165545.9381373,36
2026-09-11 19:25:45.945,1789165545.9458296,38
2026-09-11 19:25:45.953,1789165545.953522,43
2026-09-11 19:25:45.961,1789165545.9612143,33
2026-09-11 19:25:45.968,1789165545.9689066,0
2026-09-11 19:25:45.976,1789165545.976599,-38
2026-09-11 19:25:45.984,1789165545.9842913,-53
2026-09-11 19:25:45.991,1789165545.9919834,-60
2026-09-11 19:25:45.999,1789165545.9996758,-72
2026-09-11 19:25:46.007,1789165546.007368,-63
2026-09-11 19:25:46.015,1789165546.0150604,-36
2026-09-11 19:25:46.022,1789165546.0227528,-46
2026-09-11 19:25:46.030,1789165546.030445,-65
2026-09-11 19:25:46.038,1789165546.0381374,-50
2026-09-11 19:25:46.045,1789165546.0458298,-24
2026-09-11 19:25:46.053,1789165546.0535219,75
2026-09-11 19:25:46.061,1789165546.0612142,337
2026-09-11 19:25:46.068,1789165546.0689065,691
2026-09-11 19:25:46.076,1789165546.076599,890
2026-09-11 19:25:46.084,1789165546.0842912,518
2026-09-11 19:25:46.091,1789165546.0919836,-293
2026-09-11 19:25:46.099,1789165546.099676,-562
2026-09-11 19:25:46.107,1789165546.1073682,-208
2026-09-11 19:25:46.115,1789165546.1150603,-80
2026-09-11 19:25:46.122,1789165546.1227527,-169
2026-09-11 19:25:46.130,1789165546.130445,-116
2026-09-11 19:25:46.138,1789165546.1381373,-70
2026-09-11 19:25:46.145,1789165546.1458297,-99
2026-09-11 19:25:46.153,1789165546.153522,-87
2026-09-11 19:25:46.161,1789165546.1612144,-53
2026-09-11 19:25:46.168,1789165546.1689067,-36
2026-09-11 19:25:46.176,1789165546.176599,-24
2026-09-11 19:25:46.184,1789165546.1842911,-4
2026-09-11 19:25:46.191,1789165546.1919835,9
2026-09-11 19:25:46.199,1789165546.1996758,14
2026-09-11 19:25:46.206,1789165546.2067964,19
2026-09-11 19:25:46.214,1789165546.2144887,43
2026-09-11 19:25:46.222,1789165546.222181,63
2026-09-11 19:25:46.229,1789165546.2298734,65
2026-09-11 19:25:46.237,1789165546.2375658,77
2026-09-11 19:25:46.245,1789165546.2452579,123
2026-09-11 19:25:46.252,1789165546.2529502,181
2026-09-11 19:25:46.260,1789165546.2606425,225
2026-09-11 19:25:46.268,1789165546.2683349,276
2026-09-11 19:25:46.276,1789165546.2760272,332
2026-09-11 19:25:46.283,1789165546.2837195,446
2026-09-11 19:25:46.291,1789165546.2914119,666
2026-09-11 19:25:46.299,1789165546.2991042,814
2026-09-11 19:25:46.306,1789165546.3067963,785
2026-09-11 19:25:46.314,1789165546.3144886,717
2026-09-11 19:25:46.322,1789165546.322181,601
2026-09-11 19:25:46.329,1789165546.3298733,351
2026-09-11 19:25:46.337,1789165546.3375657,133
2026-09-11 19:25:46.345,1789165546.345258,31
2026-09-11 19:25:46.352,1789165546.3529503,-80
2026-09-11 19:25:46.360,1789165546.3606427,-189
2026-09-11 19:25:46.368,1789165546.3683348,-220
2026-09-11 19:25:46.376,1789165546.376027,-244
2026-09-11 19:25:46.383,1789165546.3837194,-278
2026-09-11 19:25:46.391,1789165546.3914118,-281
2026-09-11 19:25:46.399,1789165546.399104,-283
2026-09-11 19:25:46.406,1789165546.4067965,-300
2026-09-11 19:25:46.414,1789165546.4144888,-291
2026-09-11 19:25:46.422,1789165546.4221811,-252
2026-09-11 19:25:46.429,1789165546.4298732,-194
2026-09-11 19:25:46.437,1789165546.4375656,-128
2026-09-11 19:25:46.445,1789165546.445258,-89
2026-09-11 19:25:46.452,1789165546.4529502,-82
2026-09-11 19:25:46.460,1789165546.4606426,-70
2026-09-11 19:25:46.468,1789165546.468335,-46
2026-09-11 19:25:46.476,1789165546.4760273,-16
2026-09-11 19:25:46.483,1789165546.4837196,26
2026-09-11 19:25:46.491,1789165546.4914117,48
2026-09-11 19:25:46.499,1789165546.499104,4
2026-09-11 19:25:46.506,1789165546.5067964,-41
2026-09-11 19:25:46.514,1789165546.5144887,-43
2026-09-11 19:25:46.522,1789165546.522181,-67
2026-09-11 19:25:46.529,1789165546.5298734,-123
2026-09-11 19:25:46.537,1789165546.5375657,-133
2026-09-11 19:25:46.545,1789165546.545258,-128
2026-09-11 19:25:46.552,1789165546.5529501,-157
2026-09-11 19:25:46.560,1789165546.5606425,-181
2026-09-11 19:25:46.568,1789165546.5683348,-167
2026-09-11 19:25:46.576,1789165546.5760272,-145
2026-09-11 19:25:46.583,1789165546.5837195,-147
2026-09-11 19:25:46.591,1789165546.5914118,-145
2026-09-11 19:25:46.599,1789165546.5991042,-128
2026-09-11 19:25:46.606,1789165546.6067965,-123
2026-09-11 19:25:46.614,1789165546.6144886,-133
2026-09-11 19:25:46.622,1789165546.622181,-121
2026-09-11 19:25:46.629,1789165546.6298733,-75
2026-09-11 19:25:46.637,1789165546.6375656,-16
2026-09-11 19:25:46.645,1789165546.645258,38
2026-09-11 19:25:46.652,1789165546.6529503,92
2026-09-11 19:25:46.660,1789165546.6606426,89
2026-09-11 19:25:46.668,1789165546.668335,38
2026-09-11 19:25:46.676,1789165546.676027,33
2026-09-11 19:25:46.683,1789165546.6837194,58
2026-09-11 19:25:46.691,1789165546.6914117,70
2026-09-11 19:25:46.699,1789165546.699104,97
2026-09-11 19:25:46.706,1789165546.7067964,160
2026-09-11 19:25:46.714,1789165546.7144887,371
2026-09-11 19:25:46.722,1789165546.722181,826
2026-09-11 19:25:46.729,1789165546.7298734,1302
2026-09-11 19:25:46.737,1789165546.7375658,1343
2026-09-11 19:25:46.745,1789165546.7452579,666
2026-09-11 19:25:46.752,1789165546.7529502,-106
2026-09-11 19:25:46.760,1789165546.7606425,-70
2026-09-11 19:25:46.767,1789165546.7677426,271
2026-09-11 19:25:46.775,1789165546.775435,227
2026-09-11 19:25:46.783,1789165546.7831273,184
2026-09-11 19:25:46.790,1789165546.7908196,271
2026-09-11 19:25:46.798,1789165546.798512,244
2026-09-11 19:25:46.806,1789165546.806204,215
2026-09-11 19:25:46.813,1789165546.8138964,271
2026-09-11 19:25:46.821,1789165546.8215888,286
2026-09-11 19:25:46.829,1789165546.829281,300
2026-09-11 19:25:46.836,1789165546.8369734,397
2026-09-11 19:25:46.844,1789165546.8446658,504
2026-09-11 19:25:46.852,1789165546.852358,538
2026-09-11 19:25:46.860,1789165546.8600504,487
2026-09-11 19:25:46.867,1789165546.8677425,339
2026-09-11 19:25:46.875,1789165546.8754349,128
2026-09-11 19:25:46.883,1789165546.8831272,14
2026-09-11 19:25:46.890,1789165546.8908195,9
2026-09-11 19:25:46.898,1789165546.898512,-19
2026-09-11 19:25:46.906,1789165546.9062042,-26
2026-09-11 19:25:46.913,1789165546.9138966,12
2026-09-11 19:25:46.921,1789165546.921589,12
2026-09-11 19:25:46.929,1789165546.929281,16
2026-09-11 19:25:46.936,1789165546.9369733,89
2026-09-11 19:25:46.944,1789165546.9446657,140
2026-09-11 19:25:46.952,1789165546.952358,113
2026-09-11 19:25:46.960,1789165546.9600503,87
2026-09-11 19:25:46.967,1789165546.9677427,89
2026-09-11 19:25:46.975,1789165546.975435,67
2026-09-11 19:25:46.983,1789165546.9831274,29
2026-09-11 19:25:46.990,1789165546.9908195,0
2026-09-11 19:25:46.998,1789165546.9985118,-33
2026-09-11 19:25:47.006,1789165547.0062041,-58
2026-09-11 19:25:47.013,1789165547.0138965,-50
2026-09-11 19:25:47.021,1789165547.0215888,-53
2026-09-11 19:25:47.029,1789165547.0292811,-111
2026-09-11 19:25:47.036,1789165547.0369735,-181
2026-09-11 19:25:47.044,1789165547.0446658,-126
2026-09-11 19:25:47.052,1789165547.052358,84
2026-09-11 19:25:47.060,1789165547.0600502,249
2026-09-11 19:25:47.067,1789165547.0677426,157
2026-09-11 19:25:47.075,1789165547.075435,-97
2026-09-11 19:25:47.083,1789165547.0831273,-230
2026-09-11 19:25:47.090,1789165547.0908196,-240
2026-09-11 19:25:47.098,1789165547.098512,-271
2026-09-11 19:25:47.106,1789165547.1062043,-298
2026-09-11 19:25:47.113,1789165547.1138964,-286
2026-09-11 19:25:47.121,1789165547.1215887,-283
2026-09-11 19:25:47.129,1789165547.129281,-276
2026-09-11 19:25:47.136,1789165547.1369734,-264
2026-09-11 19:25:47.144,1789165547.1446657,-269
2026-09-11 19:25:47.152,1789165547.152358,-281
2026-09-11 19:25:47.160,1789165547.1600504,-283
2026-09-11 19:25:47.167,1789165547.1677427,-283
2026-09-11 19:25:47.175,1789165547.1754348,-283
2026-09-11 19:25:47.183,1789165547.1831272,-276
2026-09-11 19:25:47.190,1789165547.1908195,-264
2026-09-11 19:25:47.198,1789165547.1985118,-261
2026-09-11 19:25:47.206,1789165547.2062042,-242
2026-09-11 19:25:47.213,1789165547.2138965,-196
2026-09-11 19:25:47.221,1789165547.2215889,-201
2026-09-11 19:25:47.229,1789165547.2292812,-242
2026-09-11 19:25:47.236,1789165547.2369733,-218
2026-09-11 19:25:47.244,1789165547.2446656,-172
2026-09-11 19:25:47.252,1789165547.252358,-232
2026-09-11 19:25:47.260,1789165547.2600503,-305
2026-09-11 19:25:47.267,1789165547.2677426,-303
2026-09-11 19:25:47.275,1789165547.275435,-288
2026-09-11 19:25:47.283,1789165547.2831273,-283
2026-09-11 19:25:47.290,1789165547.2908196,-276
2026-09-11 19:25:47.298,1789165547.298512,-278
2026-09-11 19:25:47.306,1789165547.306204,-274
2026-09-11 19:25:47.313,1789165547.3138964,-254
2026-09-11 19:25:47.321,1789165547.3215888,-240
2026-09-11 19:25:47.328,1789165547.3286889,-194
2026-09-11 19:25:47.336,1789165547.3363812,-29
2026-09-11 19:25:47.344,1789165547.3440735,295
2026-09-11 19:25:47.351,1789165547.3517659,662
2026-09-11 19:25:47.359,1789165547.3594582,708
2026-09-11 19:25:47.367,1789165547.3671503,82
2026-09-11 19:25:47.374,1789165547.3748426,-683
2026-09-11 19:25:47.382,1789165547.382535,-659
2026-09-11 19:25:47.390,1789165547.3902273,-274
2026-09-11 19:25:47.397,1789165547.3979197,-278
2026-09-11 19:25:47.405,1789165547.405612,-344
2026-09-11 19:25:47.413,1789165547.4133043,-244
2026-09-11 19:25:47.420,1789165547.4209967,-218
2026-09-11 19:25:47.428,1789165547.4286888,-237
2026-09-11 19:25:47.436,1789165547.436381,-203
2026-09-11 19:25:47.444,1789165547.4440734,-177
2026-09-11 19:25:47.451,1789165547.4517658,-177
2026-09-11 19:25:47.459,1789165547.459458,-164
2026-09-11 19:25:47.467,1789165547.4671504,-140
2026-09-11 19:25:47.474,1789165547.4748428,-111
2026-09-11 19:25:47.482,1789165547.4825351,-80
2026-09-11 19:25:47.490,1789165547.4902272,-50
2026-09-11 19:25:47.497,1789165547.4979196,-26
2026-09-11 19:25:47.505,1789165547.505612,-24
2026-09-11 19:25:47.513,1789165547.5133042,-21
2026-09-11 19:25:47.520,1789165547.5209966,7
2026-09-11 19:25:47.528,1789165547.528689,29
2026-09-11 19:25:47.536,1789165547.5363812,41
2026-09-11 19:25:47.544,1789165547.5440736,72
2026-09-11 19:25:47.551,1789165547.5517657,101
2026-09-11 19:25:47.559,1789165547.559458,111
2026-09-11 19:25:47.567,1789165547.5671504,118
2026-09-11 19:25:47.574,1789165547.5748427,126
2026-09-11 19:25:47.582,1789165547.582535,118
2026-09-11 19:25:47.590,1789165547.5902274,94
2026-09-11 19:25:47.597,1789165547.5979197,63
2026-09-11 19:25:47.605,1789165547.605612,19
2026-09-11 19:25:47.613,1789165547.6133041,-38
2026-09-11 19:25:47.620,1789165547.6209965,-89
2026-09-11 19:25:47.628,1789165547.6286888,-126
2026-09-11 19:25:47.636,1789165547.6363811,-172
2026-09-11 19:25:47.644,1789165547.6440735,-196
2026-09-11 19:25:47.651,1789165547.6517658,-196
2026-09-11 19:25:47.659,1789165547.6594582,-203
2026-09-11 19:25:47.667,1789165547.6671505,-206
2026-09-11 19:25:47.674,1789165547.6748426,-198
2026-09-11 19:25:47.682,1789165547.682535,-198
2026-09-11 19:25:47.690,1789165547.6902273,-194
2026-09-11 19:25:47.697,1789165547.6979196,-179
2026-09-11 19:25:47.705,1789165547.705612,-167
2026-09-11 19:25:47.713,1789165547.7133043,-167
2026-09-11 19:25:47.720,1789165547.7209966,-160
2026-09-11 19:25:47.728,1789165547.728689,-145
2026-09-11 19:25:47.736,1789165547.736381,-126
2026-09-11 19:25:47.744,1789165547.7440734,-99
2026-09-11 19:25:47.751,1789165547.7517657,-67
2026-09-11 19:25:47.759,1789165547.759458,-46
2026-09-11 19:25:47.767,1789165547.7671504,-36
2026-09-11 19:25:47.774,1789165547.7748427,-29
2026-09-11 19:25:47.782,1789165547.782535,-26
2026-09-11 19:25:47.790,1789165547.7902274,-2
2026-09-11 19:25:47.797,1789165547.7979195,24
2026-09-11 19:25:47.805,1789165547.8056118,2
2026-09-11 19:25:47.813,1789165547.8133042,-38
2026-09-11 19:25:47.820,1789165547.8209965,-55
2026-09-11 19:25:47.828,1789165547.8286889,-55
2026-09-11 19:25:47.836,1789165547.8363812,-55
2026-09-11 19:25:47.844,1789165547.8440735,-55
2026-09-11 19:25:47.851,1789165547.8517659,-43
2026-09-11 19:25:47.859,1789165547.8594582,-31
2026-09-11 19:25:47.867,1789165547.8671503,-12
2026-09-11 19:25:47.874,1789165547.8748426,19
2026-09-11 19:25:47.882,1789165547.882535,16
2026-09-11 19:25:47.889,1789165547.8896353,-19
2026-09-11 19:25:47.897,1789165547.8973277,-33
2026-09-11 19:25:47.905,1789165547.90502,-24
2026-09-11 19:25:47.912,1789165547.9127123,-16
2026-09-11 19:25:47.920,1789165547.9204047,-36
2026-09-11 19:25:47.928,1789165547.9280968,-50
2026-09-11 19:25:47.935,1789165547.935789,-41
2026-09-11 19:25:47.943,1789165547.9434814,-36
2026-09-11 19:25:47.951,1789165547.9511738,-26
2026-09-11 19:25:47.958,1789165547.9588661,14
2026-09-11 19:25:47.966,1789165547.9665585,121
2026-09-11 19:25:47.974,1789165547.9742508,354
2026-09-11 19:25:47.981,1789165547.9819431,688
2026-09-11 19:25:47.989,1789165547.9896352,1008
2026-09-11 19:25:47.997,1789165547.9973276,909
2026-09-11 19:25:48.005,1789165548.00502,143
2026-09-11 19:25:48.012,1789165548.0127122,-443
2026-09-11 19:25:48.020,1789165548.0204046,-225
2026-09-11 19:25:48.028,1789165548.028097,16
2026-09-11 19:25:48.035,1789165548.0357893,-97
2026-09-11 19:25:48.043,1789165548.0434816,-101
2026-09-11 19:25:48.051,1789165548.0511737,4
2026-09-11 19:25:48.058,1789165548.058866,-14
2026-09-11 19:25:48.066,1789165548.0665584,-48
2026-09-11 19:25:48.074,1789165548.0742507,4
2026-09-11 19:25:48.081,1789165548.081943,36
2026-09-11 19:25:48.089,1789165548.0896354,31
2026-09-11 19:25:48.097,1789165548.0973277,58
2026-09-11 19:25:48.105,1789165548.10502,63
2026-09-11 19:25:48.112,1789165548.1127121,43
2026-09-11 19:25:48.120,1789165548.1204045,43
2026-09-11 19:25:48.128,1789165548.1280968,36
2026-09-11 19:25:48.135,1789165548.1357892,14
2026-09-11 19:25:48.143,1789165548.1434815,16
2026-09-11 19:25:48.151,1789165548.1511738,58
2026-09-11 19:25:48.158,1789165548.1588662,121
2026-09-11 19:25:48.166,1789165548.1665585,160
2026-09-11 19:25:48.174,1789165548.1742506,172
2026-09-11 19:25:48.181,1789165548.181943,210
2026-09-11 19:25:48.189,1789165548.1896353,249
2026-09-11 19:25:48.197,1789165548.1973276,232
2026-09-11 19:25:48.205,1789165548.20502,225
2026-09-11 19:25:48.212,1789165548.2127123,237
2026-09-11 19:25:48.220,1789165548.2204046,227
2026-09-11 19:25:48.228,1789165548.228097,252
2026-09-11 19:25:48.235,1789165548.235789,261
2026-09-11 19:25:48.243,1789165548.2434814,167
2026-09-11 19:25:48.251,1789165548.2511737,75
2026-09-11 19:25:48.258,1789165548.258866,63
2026-09-11 19:25:48.266,1789165548.2665584,31
2026-09-11 19:25:48.274,1789165548.2742507,-14
2026-09-11 19:25:48.281,1789165548.281943,-19
2026-09-11 19:25:48.289,1789165548.2896354,-36
2026-09-11 19:25:48.297,1789165548.2973275,-55
2026-09-11 19:25:48.305,1789165548.3050199,-31
2026-09-11 19:25:48.312,1789165548.3127122,-12
2026-09-11 19:25:48.320,1789165548.3204045,-26
2026-09-11 19:25:48.328,1789165548.3280969,-31
2026-09-11 19:25:48.335,1789165548.3357892,-24
2026-09-11 19:25:48.343,1789165548.3434815,-9
2026-09-11 19:25:48.351,1789165548.3511739,33
2026-09-11 19:25:48.358,1789165548.358866,65
2026-09-11 19:25:48.366,1789165548.3665583,63
2026-09-11 19:25:48.374,1789165548.3742507,65
2026-09-11 19:25:48.381,1789165548.381943,77
2026-09-11 19:25:48.389,1789165548.3896353,82
2026-09-11 19:25:48.397,1789165548.3973277,72
2026-09-11 19:25:48.405,1789165548.40502,60
2026-09-11 19:25:48.412,1789165548.4127123,70
2026-09-11 19:25:48.420,1789165548.4204047,94
2026-09-11 19:25:48.428,1789165548.4280968,89
2026-09-11 19:25:48.435,1789165548.435789,50
2026-09-11 19:25:48.443,1789165548.4434814,24
2026-09-11 19:25:48.450,1789165548.4506118,26
2026-09-11 19:25:48.458,1789165548.4583042,4
2026-09-11 19:25:48.465,1789165548.4659965,-48
2026-09-11 19:25:48.473,1789165548.4736888,-60
2026-09-11 19:25:48.481,1789165548.4813812,-16
2026-09-11 19:25:48.489,1789165548.4890733,16
2026-09-11 19:25:48.496,1789165548.4967656,46
2026-09-11 19:25:48.504,1789165548.504458,104
2026-09-11 19:25:48.512,1789165548.5121503,164
2026-09-11 19:25:48.519,1789165548.5198426,203
2026-09-11 19:25:48.527,1789165548.527535,215
2026-09-11 19:25:48.535,1789165548.5352273,189
2026-09-11 19:25:48.542,1789165548.5429196,143
2026-09-11 19:25:48.550,1789165548.5506117,121
2026-09-11 19:25:48.558,1789165548.558304,126
2026-09-11 19:25:48.565,1789165548.5659964,121
2026-09-11 19:25:48.573,1789165548.5736887,104
2026-09-11 19:25:48.581,1789165548.581381,97
2026-09-11 19:25:48.589,1789165548.5890734,80
2026-09-11 19:25:48.596,1789165548.5967658,46
2026-09-11 19:25:48.604,1789165548.604458,46
2026-09-11 19:25:48.612,1789165548.6121502,147
2026-09-11 19:25:48.619,1789165548.6198425,407
2026-09-11 19:25:48.627,1789165548.6275349,766
2026-09-11 19:25:48.635,1789165548.6352272,1101
2026-09-11 19:25:48.642,1789165548.6429195,1069
2026-09-11 19:25:48.650,1789165548.6506119,375
2026-09-11 19:25:48.658,1789165548.6583042,-261
2026-09-11 19:25:48.665,1789165548.6659966,-126
2026-09-11 19:25:48.673,1789165548.6736887,123
2026-09-11 19:25:48.681,1789165548.681381,19
2026-09-11 19:25:48.689,1789165548.6890733,0
2026-09-11 19:25:48.696,1789165548.6967657,82
2026-09-11 19:25:48.704,1789165548.704458,21
2026-09-11 19:25:48.712,1789165548.7121503,-33
2026-09-11 19:25:48.719,1789165548.7198427,4
2026-09-11 19:25:48.727,1789165548.727535,21
2026-09-11 19:25:48.735,1789165548.735227,9
2026-09-11 19:25:48.742,1789165548.7429194,21
2026-09-11 19:25:48.750,1789165548.7506118,29
2026-09-11 19:25:48.758,1789165548.758304,0
2026-09-11 19:25:48.765,1789165548.7659965,-16
2026-09-11 19:25:48.773,1789165548.7736888,19
2026-09-11 19:25:48.781,1789165548.7813811,58
2026-09-11 19:25:48.789,1789165548.7890735,65
2026-09-11 19:25:48.796,1789165548.7967656,92
2026-09-11 19:25:48.804,1789165548.804458,174
2026-09-11 19:25:48.812,1789165548.8121502,249
2026-09-11 19:25:48.819,1789165548.8198426,274
2026-09-11 19:25:48.827,1789165548.827535,286
2026-09-11 19:25:48.835,1789165548.8352273,293
2026-09-11 19:25:48.842,1789165548.8429196,303
2026-09-11 19:25:48.850,1789165548.850612,346
2026-09-11 19:25:48.858,1789165548.858304,407
2026-09-11 19:25:48.865,1789165548.8659964,434
2026-09-11 19:25:48.873,1789165548.8736887,407
2026-09-11 19:25:48.881,1789165548.881381,339
2026-09-11 19:25:48.889,1789165548.8890734,242
2026-09-11 19:25:48.896,1789165548.8967657,118
2026-09-11 19:25:48.904,1789165548.904458,-12
2026-09-11 19:25:48.912,1789165548.9121504,-121
2026-09-11 19:25:48.919,1789165548.9198425,-179
2026-09-11 19:25:48.927,1789165548.9275348,-184
2026-09-11 19:25:48.935,1789165548.9352272,-181
2026-09-11 19:25:48.942,1789165548.9429195,-177
2026-09-11 19:25:48.950,1789165548.9506118,-147
2026-09-11 19:25:48.958,1789165548.9583042,-111
2026-09-11 19:25:48.965,1789165548.9659965,-99
2026-09-11 19:25:48.973,1789165548.9736888,-104
2026-09-11 19:25:48.981,1789165548.9813812,-84
2026-09-11 19:25:48.989,1789165548.9890733,-67
2026-09-11 19:25:48.996,1789165548.9967656,-87
2026-09-11 19:25:49.004,1789165549.004458,-104
2026-09-11 19:25:49.011,1789165549.011599,-106
2026-09-11 19:25:49.019,1789165549.0192914,-75
2026-09-11 19:25:49.026,1789165549.0269837,0
2026-09-11 19:25:49.034,1789165549.034676,53
2026-09-11 19:25:49.042,1789165549.0423684,65
2026-09-11 19:25:49.050,1789165549.0500605,65
2026-09-11 19:25:49.057,1789165549.0577528,58
2026-09-11 19:25:49.065,1789165549.0654452,38
2026-09-11 19:25:49.073,1789165549.0731375,12
2026-09-11 19:25:49.080,1789165549.0808299,-12
2026-09-11 19:25:49.088,1789165549.0885222,-36
2026-09-11 19:25:49.096,1789165549.0962145,-77
2026-09-11 19:25:49.103,1789165549.1039069,-111
2026-09-11 19:25:49.111,1789165549.111599,-116
2026-09-11 19:25:49.119,1789165549.1192913,-111
2026-09-11 19:25:49.126,1789165549.1269836,-99
2026-09-11 19:25:49.134,1789165549.134676,-63
2026-09-11 19:25:49.142,1789165549.1423683,-9
2026-09-11 19:25:49.150,1789165549.1500607,41
2026-09-11 19:25:49.157,1789165549.157753,60
2026-09-11 19:25:49.165,1789165549.1654453,9
2026-09-11 19:25:49.173,1789165549.1731374,-53
2026-09-11 19:25:49.180,1789165549.1808298,-50
2026-09-11 19:25:49.188,1789165549.188522,-29
2026-09-11 19:25:49.196,1789165549.1962144,-41
2026-09-11 19:25:49.203,1789165549.2039068,-29
2026-09-11 19:25:49.211,1789165549.211599,9
2026-09-11 19:25:49.219,1789165549.2192914,31
2026-09-11 19:25:49.226,1789165549.2269838,67
2026-09-11 19:25:49.234,1789165549.234676,128
2026-09-11 19:25:49.242,1789165549.2423682,140
2026-09-11 19:25:49.250,1789165549.2500606,106
2026-09-11 19:25:49.257,1789165549.257753,84
2026-09-11 19:25:49.265,1789165549.2654452,53
2026-09-11 19:25:49.273,1789165549.2731376,26
2026-09-11 19:25:49.280,1789165549.28083,41
2026-09-11 19:25:49.288,1789165549.2885222,33
2026-09-11 19:25:49.296,1789165549.2962143,-7
2026-09-11 19:25:49.303,1789165549.3039067,-31
2026-09-11 19:25:49.311,1789165549.311599,-63
2026-09-11 19:25:49.319,1789165549.3192914,-84
2026-09-11 19:25:49.326,1789165549.3269837,-87
2026-09-11 19:25:49.334,1789165549.334676,-109
2026-09-11 19:25:49.342,1789165549.3423684,-58
2026-09-11 19:25:49.350,1789165549.3500607,169
2026-09-11 19:25:49.357,1789165549.3577528,504
2026-09-11 19:25:49.365,1789165549.3654451,817
2026-09-11 19:25:49.373,1789165549.3731375,712
2026-09-11 19:25:49.380,1789165549.3808298,-50
2026-09-11 19:25:49.388,1789165549.3885221,-620
2026-09-11 19:25:49.396,1789165549.3962145,-414
2026-09-11 19:25:49.403,1789165549.4039068,-186
2026-09-11 19:25:49.411,1789165549.4115992,-300
2026-09-11 19:25:49.419,1789165549.4192913,-341
2026-09-11 19:25:49.426,1789165549.4269836,-281
2026-09-11 19:25:49.434,1789165549.434676,-295
2026-09-11 19:25:49.442,1789165549.4423683,-307
2026-09-11 19:25:49.450,1789165549.4500606,-271
2026-09-11 19:25:49.457,1789165549.457753,-254
2026-09-11 19:25:49.465,1789165549.4654453,-252
2026-09-11 19:25:49.473,1789165549.4731376,-232
2026-09-11 19:25:49.480,1789165549.4808297,-201
2026-09-11 19:25:49.488,1789165549.488522,-174
2026-09-11 19:25:49.496,1789165549.4962144,-150
2026-09-11 19:25:49.503,1789165549.5039067,-123
2026-09-11 19:25:49.511,1789165549.511599,-101
2026-09-11 19:25:49.519,1789165549.5192914,-116
2026-09-11 19:25:49.526,1789165549.5269837,-147
2026-09-11 19:25:49.534,1789165549.534676,-152
2026-09-11 19:25:49.542,1789165549.5423684,-130
2026-09-11 19:25:49.550,1789165549.5500605,-82
2026-09-11 19:25:49.557,1789165549.5577528,-38
2026-09-11 19:25:49.565,1789165549.5654452,-7
2026-09-11 19:25:49.572,1789165549.5725045,24
2026-09-11 19:25:49.580,1789165549.5801969,38
2026-09-11 19:25:49.587,1789165549.5878892,-4
2026-09-11 19:25:49.595,1789165549.5955815,-67
2026-09-11 19:25:49.603,1789165549.6032739,-89
2026-09-11 19:25:49.610,1789165549.610966,-99
2026-09-11 19:25:49.618,1789165549.6186583,-155
2026-09-11 19:25:49.626,1789165549.6263506,-227
2026-09-11 19:25:49.634,1789165549.634043,-271
2026-09-11 19:25:49.641,1789165549.6417353,-298
2026-09-11 19:25:49.649,1789165549.6494277,-329
2026-09-11 19:25:49.657,1789165549.65712,-346
2026-09-11 19:25:49.664,1789165549.6648123,-375
2026-09-11 19:25:49.672,1789165549.6725044,-402
2026-09-11 19:25:49.680,1789165549.6801968,-383
2026-09-11 19:25:49.687,1789165549.687889,-368
2026-09-11 19:25:49.695,1789165549.6955814,-363
2026-09-11 19:25:49.703,1789165549.7032738,-332
2026-09-11 19:25:49.710,1789165549.710966,-305
2026-09-11 19:25:49.718,1789165549.7186584,-278
2026-09-11 19:25:49.726,1789165549.7263508,-235
2026-09-11 19:25:49.734,1789165549.734043,-201
2026-09-11 19:25:49.741,1789165549.7417352,-184
2026-09-11 19:25:49.749,1789165549.7494276,-126
2026-09-11 19:25:49.757,1789165549.75712,0
2026-09-11 19:25:49.764,1789165549.7648122,118
2026-09-11 19:25:49.772,1789165549.7725046,150
2026-09-11 19:25:49.780,1789165549.780197,130
2026-09-11 19:25:49.787,1789165549.7878892,130
2026-09-11 19:25:49.795,1789165549.7955813,143
2026-09-11 19:25:49.803,1789165549.8032737,147
2026-09-11 19:25:49.810,1789165549.810966,169
2026-09-11 19:25:49.818,1789165549.8186584,191
2026-09-11 19:25:49.826,1789165549.8263507,218
2026-09-11 19:25:49.834,1789165549.834043,274
2026-09-11 19:25:49.841,1789165549.8417354,261
2026-09-11 19:25:49.849,1789165549.8494277,201
2026-09-11 19:25:49.857,1789165549.8571198,143
2026-09-11 19:25:49.864,1789165549.8648121,24
2026-09-11 19:25:49.872,1789165549.8725045,-89
2026-09-11 19:25:49.880,1789165549.8801968,-135
2026-09-11 19:25:49.887,1789165549.8878891,-157
2026-09-11 19:25:49.895,1789165549.8955815,-172
2026-09-11 19:25:49.903,1789165549.9032738,-179
2026-09-11 19:25:49.910,1789165549.9109662,-140
2026-09-11 19:25:49.918,1789165549.9186583,-63
2026-09-11 19:25:49.926,1789165549.9263506,-43
2026-09-11 19:25:49.934,1789165549.934043,-67
2026-09-11 19:25:49.941,1789165549.9417353,-24
2026-09-11 19:25:49.949,1789165549.9494276,55
2026-09-11 19:25:49.957,1789165549.95712,65
2026-09-11 19:25:49.964,1789165549.9648123,116
2026-09-11 19:25:49.972,1789165549.9725046,310
2026-09-11 19:25:49.980,1789165549.9801967,380
2026-09-11 19:25:49.987,1789165549.987889,206
2026-09-11 19:25:49.995,1789165549.9955814,77
2026-09-11 19:25:50.003,1789165550.0032737,82
2026-09-11 19:25:50.010,1789165550.010966,130
2026-09-11 19:25:50.018,1789165550.0186584,307
2026-09-11 19:25:50.026,1789165550.0263507,521
2026-09-11 19:25:50.034,1789165550.034043,460
2026-09-11 19:25:50.041,1789165550.0417352,206
2026-09-11 19:25:50.049,1789165550.0494275,130
2026-09-11 19:25:50.057,1789165550.0571198,189
2026-09-11 19:25:50.064,1789165550.0648122,92
2026-09-11 19:25:50.072,1789165550.0725045,-38
2026-09-11 19:25:50.080,1789165550.0801969,-41
2026-09-11 19:25:50.087,1789165550.0878892,-43
2026-09-11 19:25:50.095,1789165550.0955815,-89
2026-09-11 19:25:50.103,1789165550.1032739,-75
2026-09-11 19:25:50.110,1789165550.110966,-7
2026-09-11 19:25:50.118,1789165550.1186583,-2
2026-09-11 19:25:50.126,1789165550.1263506,-92
2026-09-11 19:25:50.133,1789165550.1334507,-157
2026-09-11 19:25:50.141,1789165550.141143,-140
2026-09-11 19:25:50.148,1789165550.1488354,-145
2026-09-11 19:25:50.156,1789165550.1565278,-167
2026-09-11 19:25:50.164,1789165550.16422,-145
2026-09-11 19:25:50.171,1789165550.1719122,-152
2026-09-11 19:25:50.179,1789165550.1796045,-189
2026-09-11 19:25:50.187,1789165550.1872969,-123
2026-09-11 19:25:50.194,1789165550.1949892,72
2026-09-11 19:25:50.202,1789165550.2026815,312
2026-09-11 19:25:50.210,1789165550.2103739,618
2026-09-11 19:25:50.218,1789165550.2180662,870
2026-09-11 19:25:50.225,1789165550.2257586,521
2026-09-11 19:25:50.233,1789165550.2334507,-220
2026-09-11 19:25:50.241,1789165550.241143,-300
2026-09-11 19:25:50.248,1789165550.2488353,72
2026-09-11 19:25:50.256,1789165550.2565277,53
2026-09-11 19:25:50.264,1789165550.26422,-72
2026-09-11 19:25:50.271,1789165550.2719123,-41
2026-09-11 19:25:50.279,1789165550.2796047,-82
2026-09-11 19:25:50.287,1789165550.287297,-84
2026-09-11 19:25:50.294,1789165550.294989,19
2026-09-11 19:25:50.302,1789165550.3026814,65
2026-09-11 19:25:50.310,1789165550.3103738,99
2026-09-11 19:25:50.318,1789165550.3180661,152
2026-09-11 19:25:50.325,1789165550.3257585,63
2026-09-11 19:25:50.333,1789165550.3334508,-55
2026-09-11 19:25:50.341,1789165550.3411431,-41
2026-09-11 19:25:50.348,1789165550.3488355,-16
2026-09-11 19:25:50.356,1789165550.3565276,-7
2026-09-11 19:25:50.364,1789165550.36422,123
2026-09-11 19:25:50.371,1789165550.3719122,271
2026-09-11 19:25:50.379,1789165550.3796046,300
2026-09-11 19:25:50.387,1789165550.387297,298
2026-09-11 19:25:50.394,1789165550.3949893,307
2026-09-11 19:25:50.402,1789165550.4026816,278
2026-09-11 19:25:50.410,1789165550.410374,288
2026-09-11 19:25:50.418,1789165550.418066,383
2026-09-11 19:25:50.425,1789165550.4257584,431
2026-09-11 19:25:50.433,1789165550.4334507,412
2026-09-11 19:25:50.441,1789165550.441143,443
2026-09-11 19:25:50.448,1789165550.4488354,424
2026-09-11 19:25:50.456,1789165550.4565277,286
2026-09-11 19:25:50.464,1789165550.46422,271
2026-09-11 19:25:50.471,1789165550.4719124,339
2026-09-11 19:25:50.479,1789165550.4796045,242
2026-09-11 19:25:50.487,1789165550.4872968,194
2026-09-11 19:25:50.494,1789165550.4949892,395
2026-09-11 19:25:50.502,1789165550.5026815,586
2026-09-11 19:25:50.510,1789165550.5103738,567
2026-09-11 19:25:50.518,1789165550.5180662,504
2026-09-11 19:25:50.525,1789165550.5257585,552
2026-09-11 19:25:50.533,1789165550.5334508,615
2026-09-11 19:25:50.541,1789165550.541143,623
2026-09-11 19:25:50.548,1789165550.5488353,630
2026-09-11 19:25:50.556,1789165550.5565276,552
2026-09-11 19:25:50.564,1789165550.56422,351
2026-09-11 19:25:50.571,1789165550.5719123,225
2026-09-11 19:25:50.579,1789165550.5796046,278
2026-09-11 19:25:50.587,1789165550.587297,322
2026-09-11 19:25:50.594,1789165550.5949893,315
2026-09-11 19:25:50.602,1789165550.6026814,380
2026-09-11 19:25:50.610,1789165550.6103737,455
2026-09-11 19:25:50.618,1789165550.618066,455
2026-09-11 19:25:50.625,1789165550.6257584,482
2026-09-11 19:25:50.633,1789165550.6334507,518
2026-09-11 19:25:50.641,1789165550.641143,458
2026-09-11 19:25:50.648,1789165550.6488354,368
2026-09-11 19:25:50.656,1789165550.6565278,358
2026-09-11 19:25:50.664,1789165550.66422,434
2026-09-11 19:25:50.671,1789165550.6719122,475
2026-09-11 19:25:50.679,1789165550.6796045,397
2026-09-11 19:25:50.687,1789165550.6872969,351
2026-09-11 19:25:50.694,1789165550.6944225,388
2026-09-11 19:25:50.702,1789165550.7021148,339
2026-09-11 19:25:50.709,1789165550.7098072,257
2026-09-11 19:25:50.717,1789165550.7174995,329
2026-09-11 19:25:50.725,1789165550.7251918,419
2026-09-11 19:25:50.732,1789165550.732884,402
2026-09-11 19:25:50.740,1789165550.7405763,421
2026-09-11 19:25:50.748,1789165550.7482686,504
2026-09-11 19:25:50.755,1789165550.755961,504
2026-09-11 19:25:50.763,1789165550.7636533,407
2026-09-11 19:25:50.771,1789165550.7713456,307
2026-09-11 19:25:50.779,1789165550.779038,252
2026-09-11 19:25:50.786,1789165550.7867303,213
2026-09-11 19:25:50.794,1789165550.7944224,-12
2026-09-11 19:25:50.802,1789165550.8021147,-475
2026-09-11 19:25:50.809,1789165550.809807,-628
2026-09-11 19:25:50.817,1789165550.8174994,-366
2026-09-11 19:25:50.825,1789165550.8251917,-257
2026-09-11 19:25:50.832,1789165550.832884,-317
2026-09-11 19:25:50.840,1789165550.8405764,-247
2026-09-11 19:25:50.848,1789165550.8482687,-174
2026-09-11 19:25:50.855,1789165550.8559608,-208
2026-09-11 19:25:50.863,1789165550.8636532,-206
2026-09-11 19:25:50.871,1789165550.8713455,-80
2026-09-11 19:25:50.879,1789165550.8790379,89
2026-09-11 19:25:50.886,1789165550.8867302,135
2026-09-11 19:25:50.894,1789165550.8944225,80
2026-09-11 19:25:50.902,1789165550.9021149,70
2026-09-11 19:25:50.909,1789165550.9098072,92
2026-09-11 19:25:50.917,1789165550.9174993,104
2026-09-11 19:25:50.925,1789165550.9251916,128
2026-09-11 19:25:50.932,1789165550.932884,92
2026-09-11 19:25:50.940,1789165550.9405763,-60
2026-09-11 19:25:50.948,1789165550.9482687,-194
2026-09-11 19:25:50.955,1789165550.955961,-237
2026-09-11 19:25:50.963,1789165550.9636533,-237
2026-09-11 19:25:50.971,1789165550.9713457,-286
2026-09-11 19:25:50.979,1789165550.9790378,-489
2026-09-11 19:25:50.986,1789165550.98673,-715
2026-09-11 19:25:50.994,1789165550.9944224,-688
2026-09-11 19:25:51.002,1789165551.0021148,-482
2026-09-11 19:25:51.009,1789165551.009807,-305
2026-09-11 19:25:51.017,1789165551.0174994,-87
2026-09-11 19:25:51.025,1789165551.0251918,237
2026-09-11 19:25:51.032,1789165551.0328841,482
2026-09-11 19:25:51.040,1789165551.0405762,599
2026-09-11 19:25:51.048,1789165551.0482686,739
2026-09-11 19:25:51.055,1789165551.055961,834
2026-09-11 19:25:51.063,1789165551.0636532,826
2026-09-11 19:25:51.071,1789165551.0713456,916
2026-09-11 19:25:51.079,1789165551.079038,1229
2026-09-11 19:25:51.086,1789165551.0867302,1571
2026-09-11 19:25:51.094,1789165551.0944226,1321
2026-09-11 19:25:51.102,1789165551.1021147,366
2026-09-11 19:25:51.109,1789165551.109807,-189
2026-09-11 19:25:51.117,1789165551.1174994,82
2026-09-11 19:25:51.125,1789165551.1251917,196
2026-09-11 19:25:51.132,1789165551.132884,-2
2026-09-11 19:25:51.140,1789165551.1405764,189
2026-09-11 19:25:51.148,1789165551.1482687,577
2026-09-11 19:25:51.155,1789165551.155961,557
2026-09-11 19:25:51.163,1789165551.1636531,315
2026-09-11 19:25:51.171,1789165551.1713455,213
2026-09-11 19:25:51.179,1789165551.1790378,140
2026-09-11 19:25:51.186,1789165551.1867301,92
2026-09-11 19:25:51.194,1789165551.1944225,210
2026-09-11 19:25:51.202,1789165551.2021148,240
2026-09-11 19:25:51.209,1789165551.2098072,135
2026-09-11 19:25:51.217,1789165551.2174995,177
2026-09-11 19:25:51.225,1789165551.2251918,286
2026-09-11 19:25:51.232,1789165551.232884,354
2026-09-11 19:25:51.240,1789165551.2405763,388
2026-09-11 19:25:51.248,1789165551.2482686,349
2026-09-11 19:25:51.255,1789165551.2553737,320
2026-09-11 19:25:51.263,1789165551.263066,337
2026-09-11 19:25:51.270,1789165551.2707584,288
2026-09-11 19:25:51.278,1789165551.2784507,186
2026-09-11 19:25:51.286,1789165551.286143,162
2026-09-11 19:25:51.293,1789165551.2938352,259
2026-09-11 19:25:51.301,1789165551.3015275,402
2026-09-11 19:25:51.309,1789165551.3092198,443
2026-09-11 19:25:51.316,1789165551.3169122,329
2026-09-11 19:25:51.324,1789165551.3246045,201
2026-09-11 19:25:51.332,1789165551.3322968,162
2026-09-11 19:25:51.339,1789165551.3399892,109
2026-09-11 19:25:51.347,1789165551.3476815,12
2026-09-11 19:25:51.355,1789165551.3553736,-70
2026-09-11 19:25:51.363,1789165551.363066,-128
2026-09-11 19:25:51.370,1789165551.3707583,-145
2026-09-11 19:25:51.378,1789165551.3784506,-67
2026-09-11 19:25:51.386,1789165551.386143,24
2026-09-11 19:25:51.393,1789165551.3938353,-26
2026-09-11 19:25:51.401,1789165551.4015276,-223
2026-09-11 19:25:51.409,1789165551.40922,-373
2026-09-11 19:25:51.416,1789165551.416912,-312
2026-09-11 19:25:51.424,1789165551.4246044,-174
2026-09-11 19:25:51.432,1789165551.4322968,-174
2026-09-11 19:25:51.439,1789165551.439989,-223
2026-09-11 19:25:51.447,1789165551.4476814,-218
2026-09-11 19:25:51.455,1789165551.4553738,-259
2026-09-11 19:25:51.463,1789165551.463066,-366
2026-09-11 19:25:51.470,1789165551.4707584,-361
2026-09-11 19:25:51.478,1789165551.4784505,-194
2026-09-11 19:25:51.486,1789165551.4861429,-101
2026-09-11 19:25:51.493,1789165551.4938352,-167
2026-09-11 19:25:51.501,1789165551.5015275,-179
2026-09-11 19:25:51.509,1789165551.50922,-89
2026-09-11 19:25:51.516,1789165551.5169122,-92
2026-09-11 19:25:51.524,1789165551.5246046,-186
2026-09-11 19:25:51.532,1789165551.532297,-218
2026-09-11 19:25:51.539,1789165551.539989,-186
2026-09-11 19:25:51.547,1789165551.5476813,-106
2026-09-11 19:25:51.555,1789165551.5553737,-41
2026-09-11 19:25:51.563,1789165551.563066,-80
2026-09-11 19:25:51.570,1789165551.5707583,-130
2026-09-11 19:25:51.578,1789165551.5784507,-133
2026-09-11 19:25:51.586,1789165551.586143,-172
2026-09-11 19:25:51.593,1789165551.5938354,-230
2026-09-11 19:25:51.601,1789165551.6015275,-164
2026-09-11 19:25:51.609,1789165551.6092198,-31
2026-09-11 19:25:51.616,1789165551.6169121,-26
2026-09-11 19:25:51.624,1789165551.6246045,-84
2026-09-11 19:25:51.632,1789165551.6322968,12
2026-09-11 19:25:51.639,1789165551.6399891,235
2026-09-11 19:25:51.647,1789165551.6476815,356
2026-09-11 19:25:51.655,1789165551.6553738,305
2026-09-11 19:25:51.663,1789165551.663066,317
2026-09-11 19:25:51.670,1789165551.6707582,589
2026-09-11 19:25:51.678,1789165551.6784506,955
2026-09-11 19:25:51.686,1789165551.686143,1171
2026-09-11 19:25:51.693,1789165551.6938353,1295
2026-09-11 19:25:51.701,1789165551.7015276,1457
2026-09-11 19:25:51.709,1789165551.70922,1571
2026-09-11 19:25:51.716,1789165551.7169123,1479
2026-09-11 19:25:51.724,1789165551.7246044,1227
2026-09-11 19:25:51.732,1789165551.7322967,1013
2026-09-11 19:25:51.739,1789165551.739989,911
2026-09-11 19:25:51.747,1789165551.7476814,909
2026-09-11 19:25:51.755,1789165551.7553737,1016
2026-09-11 19:25:51.763,1789165551.763066,1108
2026-09-11 19:25:51.770,1789165551.7707584,1137
2026-09-11 19:25:51.778,1789165551.7784507,1297
2026-09-11 19:25:51.786,1789165551.786143,1547
2026-09-11 19:25:51.793,1789165551.7938352,1862
2026-09-11 19:25:51.801,1789165551.8015275,2291
2026-09-11 19:25:51.809,1789165551.8092198,2374
2026-09-11 19:25:51.816,1789165551.8163202,2170
2026-09-11 19:25:51.824,1789165551.8240125,2160
2026-09-11 19:25:51.831,1789165551.8317049,2010
2026-09-11 19:25:51.839,1789165551.8393972,1595
2026-09-11 19:25:51.847,1789165551.8470895,1088
2026-09-11 19:25:51.854,1789165551.8547816,344
2026-09-11 19:25:51.862,1789165551.862474,-126
2026-09-11 19:25:51.870,1789165551.8701663,160
2026-09-11 19:25:51.877,1789165551.8778586,419
2026-09-11 19:25:51.885,1789165551.885551,150
2026-09-11 19:25:51.893,1789165551.8932433,2
2026-09-11 19:25:51.900,1789165551.9009356,237
2026-09-11 19:25:51.908,1789165551.908628,341
2026-09-11 19:25:51.916,1789165551.91632,130
2026-09-11 19:25:51.924,1789165551.9240124,7
2026-09-11 19:25:51.931,1789165551.9317048,242
2026-09-11 19:25:51.939,1789165551.939397,807
2026-09-11 19:25:51.947,1789165551.9470894,1445
2026-09-11 19:25:51.954,1789165551.9547818,1651
2026-09-11 19:25:51.962,1789165551.962474,1292
2026-09-11 19:25:51.970,1789165551.9701664,671
2026-09-11 19:25:51.977,1789165551.9778585,-46
2026-09-11 19:25:51.985,1789165551.9855509,-637
2026-09-11 19:25:51.993,1789165551.9932432,-858
2026-09-11 19:25:52.000,1789165552.0009356,-936
2026-09-11 19:25:52.008,1789165552.008628,-1054
2026-09-11 19:25:52.016,1789165552.0163202,-1067
2026-09-11 19:25:52.024,1789165552.0240126,-1020
2026-09-11 19:25:52.031,1789165552.031705,-1062
2026-09-11 19:25:52.039,1789165552.039397,-1101
2026-09-11 19:25:52.047,1789165552.0470893,-1144
2026-09-11 19:25:52.054,1789165552.0547817,-1239
2026-09-11 19:25:52.062,1789165552.062474,-1268
2026-09-11 19:25:52.070,1789165552.0701663,-1214
2026-09-11 19:25:52.077,1789165552.0778587,-1159
2026-09-11 19:25:52.085,1789165552.085551,-1173
2026-09-11 19:25:52.093,1789165552.0932434,-1253
2026-09-11 19:25:52.100,1789165552.1009355,-1307
2026-09-11 19:25:52.108,1789165552.1086278,-1282
2026-09-11 19:25:52.116,1789165552.1163201,-1246
2026-09-11 19:25:52.124,1789165552.1240125,-1273
2026-09-11 19:25:52.131,1789165552.1317048,-1319
2026-09-11 19:25:52.139,1789165552.1393971,-1309
2026-09-11 19:25:52.147,1789165552.1470895,-1222
2026-09-11 19:25:52.154,1789165552.1547818,-1037
2026-09-11 19:25:52.162,1789165552.162474,-819
2026-09-11 19:25:52.170,1789165552.1701663,-703
2026-09-11 19:25:52.177,1789165552.1778586,-637
2026-09-11 19:25:52.185,1789165552.185551,-516
2026-09-11 19:25:52.193,1789165552.1932433,-412
2026-09-11 19:25:52.200,1789165552.2009356,-385
2026-09-11 19:25:52.208,1789165552.208628,-322
2026-09-11 19:25:52.216,1789165552.2163203,-252
2026-09-11 19:25:52.224,1789165552.2240124,-303
2026-09-11 19:25:52.231,1789165552.2317047,-339
2026-09-11 19:25:52.239,1789165552.239397,-271
2026-09-11 19:25:52.247,1789165552.2470894,-257
2026-09-11 19:25:52.254,1789165552.2547817,-322
2026-09-11 19:25:52.262,1789165552.262474,-315
2026-09-11 19:25:52.270,1789165552.2701664,-247
2026-09-11 19:25:52.277,1789165552.2778587,-230
2026-09-11 19:25:52.285,1789165552.2855508,-227
2026-09-11 19:25:52.293,1789165552.2932432,-189
2026-09-11 19:25:52.300,1789165552.3009355,-186
2026-09-11 19:25:52.308,1789165552.3086278,-210
2026-09-11 19:25:52.316,1789165552.3163202,-186
2026-09-11 19:25:52.324,1789165552.3240125,-150
2026-09-11 19:25:52.331,1789165552.3317049,-133
2026-09-11 19:25:52.339,1789165552.3393972,-133
2026-09-11 19:25:52.347,1789165552.3470895,-128
2026-09-11 19:25:52.354,1789165552.3547816,-111
2026-09-11 19:25:52.362,1789165552.362474,-106
2026-09-11 19:25:52.370,1789165552.3701663,-109
2026-09-11 19:25:52.377,1789165552.3772767,-109
2026-09-11 19:25:52.384,1789165552.384969,-121
2026-09-11 19:25:52.392,1789165552.3926613,-140
2026-09-11 19:25:52.400,1789165552.4003537,-164
2026-09-11 19:25:52.408,1789165552.408046,-230
2026-09-11 19:25:52.415,1789165552.415738,-307
2026-09-11 19:25:52.423,1789165552.4234304,-334
2026-09-11 19:25:52.431,1789165552.4311228,-334
2026-09-11 19:25:52.438,1789165552.438815,-320
2026-09-11 19:25:52.446,1789165552.4465075,-300
2026-09-11 19:25:52.454,1789165552.4541998,-305
2026-09-11 19:25:52.461,1789165552.4618921,-298
2026-09-11 19:25:52.469,1789165552.4695845,-291
2026-09-11 19:25:52.477,1789165552.4772766,-298
2026-09-11 19:25:52.484,1789165552.484969,-203
2026-09-11 19:25:52.492,1789165552.4926612,104
2026-09-11 19:25:52.500,1789165552.5003536,535
2026-09-11 19:25:52.508,1789165552.508046,860
2026-09-11 19:25:52.515,1789165552.5157382,725
2026-09-11 19:25:52.523,1789165552.5234306,-72
2026-09-11 19:25:52.531,1789165552.531123,-732
2026-09-11 19:25:52.538,1789165552.538815,-511
2026-09-11 19:25:52.546,1789165552.5465074,-128
2026-09-11 19:25:52.554,1789165552.5541997,-126
2026-09-11 19:25:52.561,1789165552.561892,-138
2026-09-11 19:25:52.569,1789165552.5695844,-128
2026-09-11 19:25:52.577,1789165552.5772767,-177
2026-09-11 19:25:52.584,1789165552.584969,-174
2026-09-11 19:25:52.592,1789165552.5926614,-189
2026-09-11 19:25:52.600,1789165552.6003535,-213
2026-09-11 19:25:52.608,1789165552.6080458,-179
2026-09-11 19:25:52.615,1789165552.6157382,-196
2026-09-11 19:25:52.623,1789165552.6234305,-237
2026-09-11 19:25:52.631,1789165552.6311228,-218
2026-09-11 19:25:52.638,1789165552.6388152,-227
2026-09-11 19:25:52.646,1789165552.6465075,-271
2026-09-11 19:25:52.654,1789165552.6541998,-215
2026-09-11 19:25:52.661,1789165552.661892,-43
2026-09-11 19:25:52.669,1789165552.6695843,215
2026-09-11 19:25:52.677,1789165552.6772766,518
2026-09-11 19:25:52.684,1789165552.684969,868
2026-09-11 19:25:52.692,1789165552.6926613,1081
2026-09-11 19:25:52.700,1789165552.7003536,797
2026-09-11 19:25:52.708,1789165552.708046,373
2026-09-11 19:25:52.715,1789165552.7157383,266
2026-09-11 19:25:52.723,1789165552.7234304,184
2026-09-11 19:25:52.731,1789165552.7311227,0
2026-09-11 19:25:52.738,1789165552.738815,-50
2026-09-11 19:25:52.746,1789165552.7465074,-4
2026-09-11 19:25:52.754,1789165552.7541997,-48
2026-09-11 19:25:52.761,1789165552.761892,-123
2026-09-11 19:25:52.769,1789165552.7695844,-113
2026-09-11 19:25:52.777,1789165552.7772768,-111
2026-09-11 19:25:52.784,1789165552.7849689,-210
2026-09-11 19:25:52.792,1789165552.7926612,-291
2026-09-11 19:25:52.800,1789165552.8003535,-295
2026-09-11 19:25:52.808,1789165552.8080459,-283
2026-09-11 19:25:52.815,1789165552.8157382,-271
2026-09-11 19:25:52.823,1789165552.8234305,-324
2026-09-11 19:25:52.831,1789165552.8311229,-497
2026-09-11 19:25:52.838,1789165552.8388152,-671
2026-09-11 19:25:52.846,1789165552.8465073,-703
2026-09-11 19:25:52.854,1789165552.8541996,-615
2026-09-11 19:25:52.861,1789165552.861892,-518
2026-09-11 19:25:52.869,1789165552.8695843,-443
2026-09-11 19:25:52.877,1789165552.8772767,-414
2026-09-11 19:25:52.884,1789165552.884969,-465
2026-09-11 19:25:52.892,1789165552.8926613,-468
2026-09-11 19:25:52.900,1789165552.9003537,-385
2026-09-11 19:25:52.908,1789165552.908046,-390
2026-09-11 19:25:52.915,1789165552.915738,-455
2026-09-11 19:25:52.923,1789165552.9234304,-434
2026-09-11 19:25:52.931,1789165552.9311228,-366
2026-09-11 19:25:52.938,1789165552.9382432,-295
2026-09-11 19:25:52.945,1789165552.9459355,-240
2026-09-11 19:25:52.953,1789165552.9536278,-213
2026-09-11 19:25:52.961,1789165552.9613202,-133
2026-09-11 19:25:52.969,1789165552.9690125,-72
2026-09-11 19:25:52.976,1789165552.9767046,-140
2026-09-11 19:25:52.984,1789165552.984397,-152
2026-09-11 19:25:52.992,1789165552.9920893,14
2026-09-11 19:25:52.999,1789165552.9997816,210
2026-09-11 19:25:53.007,1789165553.007474,329
2026-09-11 19:25:53.015,1789165553.0151663,455
2026-09-11 19:25:53.022,1789165553.0228586,577
2026-09-11 19:25:53.030,1789165553.030551,552
2026-09-11 19:25:53.038,1789165553.038243,497
2026-09-11 19:25:53.045,1789165553.0459354,586
2026-09-11 19:25:53.053,1789165553.0536277,734
2026-09-11 19:25:53.061,1789165553.06132,892
2026-09-11 19:25:53.069,1789165553.0690124,1561
2026-09-11 19:25:53.076,1789165553.0767047,2919
2026-09-11 19:25:53.084,1789165553.084397,3271
2026-09-11 19:25:53.092,1789165553.0920894,1920
2026-09-11 19:25:53.099,1789165553.0997815,1018
2026-09-11 19:25:53.107,1789165553.1074739,1062
2026-09-11 19:25:53.115,1789165553.1151662,853
2026-09-11 19:25:53.122,1789165553.1228585,715
2026-09-11 19:25:53.130,1789165553.1305509,984
2026-09-11 19:25:53.138,1789165553.1382432,999
2026-09-11 19:25:53.145,1789165553.1459355,320
2026-09-11 19:25:53.153,1789165553.1536279,-640
2026-09-11 19:25:53.161,1789165553.16132,-970
2026-09-11 19:25:53.169,1789165553.1690123,-717
2026-09-11 19:25:53.176,1789165553.1767046,-727
2026-09-11 19:25:53.184,1789165553.184397,-892
2026-09-11 19:25:53.192,1789165553.1920893,-843
2026-09-11 19:25:53.199,1789165553.1997817,-805
2026-09-11 19:25:53.207,1789165553.207474,-826
2026-09-11 19:25:53.215,1789165553.2151663,-732
2026-09-11 19:25:53.222,1789165553.2228584,-586
2026-09-11 19:25:53.230,1789165553.2305508,-523
2026-09-11 19:25:53.238,1789165553.238243,-509
2026-09-11 19:25:53.245,1789165553.2459354,-489
2026-09-11 19:25:53.253,1789165553.2536278,-475
2026-09-11 19:25:53.261,1789165553.26132,-468
2026-09-11 19:25:53.269,1789165553.2690125,-472
2026-09-11 19:25:53.276,1789165553.2767048,-482
2026-09-11 19:25:53.284,1789165553.284397,-494
2026-09-11 19:25:53.292,1789165553.2920892,-516
2026-09-11 19:25:53.299,1789165553.2997816,-511
2026-09-11 19:25:53.307,1789165553.307474,-468
2026-09-11 19:25:53.315,1789165553.3151662,-424
2026-09-11 19:25:53.322,1789165553.3228586,-385
2026-09-11 19:25:53.330,1789165553.330551,-366
2026-09-11 19:25:53.338,1789165553.3382432,-356
2026-09-11 19:25:53.345,1789165553.3459353,-327
2026-09-11 19:25:53.353,1789165553.3536277,-291
2026-09-11 19:25:53.361,1789165553.36132,-274
2026-09-11 19:25:53.369,1789165553.3690124,-269
2026-09-11 19:25:53.376,1789165553.3767047,-305
2026-09-11 19:25:53.384,1789165553.384397,-390
2026-09-11 19:25:53.392,1789165553.3920894,-453
2026-09-11 19:25:53.399,1789165553.3997817,-497
2026-09-11 19:25:53.407,1789165553.4074738,-589
2026-09-11 19:25:53.415,1789165553.4151661,-688
2026-09-11 19:25:53.422,1789165553.4228585,-734
2026-09-11 19:25:53.430,1789165553.4305508,-725
2026-09-11 19:25:53.438,1789165553.4382432,-705
2026-09-11 19:25:53.445,1789165553.4459355,-696
2026-09-11 19:25:53.453,1789165553.4536278,-679
2026-09-11 19:25:53.461,1789165553.4613202,-681
2026-09-11 19:25:53.469,1789165553.4690125,-700
2026-09-11 19:25:53.476,1789165553.4767046,-671
2026-09-11 19:25:53.484,1789165553.484397,-625
2026-09-11 19:25:53.492,1789165553.4920893,-625
2026-09-11 19:25:53.499,1789165553.49922,-640
2026-09-11 19:25:53.506,1789165553.5069122,-637
2026-09-11 19:25:53.514,1789165553.5146046,-615
2026-09-11 19:25:53.522,1789165553.522297,-565
2026-09-11 19:25:53.529,1789165553.5299892,-518
2026-09-11 19:25:53.537,1789165553.5376813,-487
2026-09-11 19:25:53.545,1789165553.5453737,-409
2026-09-11 19:25:53.553,1789165553.553066,-201
2026-09-11 19:25:53.560,1789165553.5607584,147
2026-09-11 19:25:53.568,1789165553.5684507,540
2026-09-11 19:25:53.576,1789165553.576143,921
2026-09-11 19:25:53.583,1789165553.5838354,1263
2026-09-11 19:25:53.591,1789165553.5915277,1530
2026-09-11 19:25:53.599,1789165553.5992198,1651
2026-09-11 19:25:53.606,1789165553.6069121,1559
2026-09-11 19:25:53.614,1789165553.6146045,1394
2026-09-11 19:25:53.622,1789165553.6222968,1382
2026-09-11 19:25:53.629,1789165553.6299891,1309
2026-09-11 19:25:53.637,1789165553.6376815,1006
2026-09-11 19:25:53.645,1789165553.6453738,938
2026-09-11 19:25:53.653,1789165553.6530662,1263
2026-09-11 19:25:53.660,1789165553.6607583,1455
2026-09-11 19:25:53.668,1789165553.6684506,1423
2026-09-11 19:25:53.676,1789165553.676143,1406
2026-09-11 19:25:53.683,1789165553.6838353,1392
2026-09-11 19:25:53.691,1789165553.6915276,1438
2026-09-11 19:25:53.699,1789165553.69922,1564
2026-09-11 19:25:53.706,1789165553.7069123,1593
2026-09-11 19:25:53.714,1789165553.7146046,1527
2026-09-11 19:25:53.722,1789165553.7222967,1455
2026-09-11 19:25:53.729,1789165553.729989,1409
2026-09-11 19:25:53.737,1789165553.7376814,1518
2026-09-11 19:25:53.745,1789165553.7453737,1874
2026-09-11 19:25:53.753,1789165553.753066,2182
2026-09-11 19:25:53.760,1789165553.7607584,2029
2026-09-11 19:25:53.768,1789165553.7684507,1275
2026-09-11 19:25:53.776,1789165553.776143,371
2026-09-11 19:25:53.783,1789165553.7838352,237
2026-09-11 19:25:53.791,1789165553.7915275,691
2026-09-11 19:25:53.799,1789165553.7992198,793
2026-09-11 19:25:53.806,1789165553.8069122,630
2026-09-11 19:25:53.814,1789165553.8146045,681
2026-09-11 19:25:53.822,1789165553.8222969,788
2026-09-11 19:25:53.829,1789165553.8299892,812
2026-09-11 19:25:53.837,1789165553.8376815,950
2026-09-11 19:25:53.845,1789165553.8453736,1261
2026-09-11 19:25:53.853,1789165553.853066,1658
2026-09-11 19:25:53.860,1789165553.8607583,1981
2026-09-11 19:25:53.868,1789165553.8684506,1991
2026-09-11 19:25:53.876,1789165553.876143,1879
2026-09-11 19:25:53.883,1789165553.8838353,2153
2026-09-11 19:25:53.891,1789165553.8915277,2434
2026-09-11 19:25:53.899,1789165553.89922,2168
2026-09-11 19:25:53.906,1789165553.906912,1957
2026-09-11 19:25:53.914,1789165553.9146044,2374
2026-09-11 19:25:53.922,1789165553.9222968,2757
2026-09-11 19:25:53.929,1789165553.929989,2495
2026-09-11 19:25:53.937,1789165553.9376814,2449
2026-09-11 19:25:53.945,1789165553.9453738,2956
2026-09-11 19:25:53.953,1789165553.953066,2757
2026-09-11 19:25:53.960,1789165553.9607584,1860
2026-09-11 19:25:53.968,1789165553.9684505,1234
2026-09-11 19:25:53.976,1789165553.976143,712
2026-09-11 19:25:53.983,1789165553.9838352,288
2026-09-11 19:25:53.991,1789165553.9915276,278
2026-09-11 19:25:53.999,1789165553.99922,160
2026-09-11 19:25:54.006,1789165554.0069122,-470
2026-09-11 19:25:54.014,1789165554.0146046,-1093
2026-09-11 19:25:54.022,1789165554.022297,-1372
2026-09-11 19:25:54.029,1789165554.0299892,-1520
2026-09-11 19:25:54.037,1789165554.0376813,-1571
2026-09-11 19:25:54.045,1789165554.0453737,-1496
2026-09-11 19:25:54.053,1789165554.053066,-1404
2026-09-11 19:25:54.060,1789165554.0601664,-1392
2026-09-11 19:25:54.067,1789165554.0678587,-1476
2026-09-11 19:25:54.075,1789165554.075551,-1530
2026-09-11 19:25:54.083,1789165554.0832434,-1459
2026-09-11 19:25:54.090,1789165554.0909357,-1423
2026-09-11 19:25:54.098,1789165554.0986278,-1515
2026-09-11 19:25:54.106,1789165554.1063201,-1522
2026-09-11 19:25:54.114,1789165554.1140125,-1176
2026-09-11 19:25:54.121,1789165554.1217048,-751
2026-09-11 19:25:54.129,1789165554.1293972,-773
2026-09-11 19:25:54.137,1789165554.1370895,-923
2026-09-11 19:25:54.144,1789165554.1447818,-788
2026-09-11 19:25:54.152,1789165554.1524742,-671
2026-09-11 19:25:54.160,1789165554.1601663,-715
2026-09-11 19:25:54.167,1789165554.1678586,-785
2026-09-11 19:25:54.175,1789165554.175551,-829
2026-09-11 19:25:54.183,1789165554.1832433,-761
2026-09-11 19:25:54.190,1789165554.1909356,-632
2026-09-11 19:25:54.198,1789165554.198628,-509
2026-09-11 19:25:54.206,1789165554.2063203,-349
2026-09-11 19:25:54.214,1789165554.2140126,-172
2026-09-11 19:25:54.221,1789165554.2217047,97
2026-09-11 19:25:54.229,1789165554.229397,700
2026-09-11 19:25:54.237,1789165554.2370894,1377
2026-09-11 19:25:54.244,1789165554.2447817,1367
2026-09-11 19:25:54.252,1789165554.252474,1011
2026-09-11 19:25:54.260,1789165554.2601664,1071
2026-09-11 19:25:54.267,1789165554.2678587,1103
2026-09-11 19:25:54.275,1789165554.275551,853
2026-09-11 19:25:54.283,1789165554.2832432,746
2026-09-11 19:25:54.290,1789165554.2909355,848
2026-09-11 19:25:54.298,1789165554.2986279,899
2026-09-11 19:25:54.306,1789165554.3063202,742
2026-09-11 19:25:54.314,1789165554.3140125,601
2026-09-11 19:25:54.321,1789165554.3217049,611
2026-09-11 19:25:54.329,1789165554.3293972,589
2026-09-11 19:25:54.337,1789165554.3370895,528
2026-09-11 19:25:54.344,1789165554.3447816,606
2026-09-11 19:25:54.352,1789165554.352474,1047
2026-09-11 19:25:54.360,1789165554.3601663,1809
2026-09-11 19:25:54.367,1789165554.3678586,2301
2026-09-11 19:25:54.375,1789165554.375551,2073
2026-09-11 19:25:54.383,1789165554.3832433,1302
2026-09-11 19:25:54.390,1789165554.3909357,584
2026-09-11 19:25:54.398,1789165554.398628,390
2026-09-11 19:25:54.406,1789165554.40632,341
2026-09-11 19:25:54.414,1789165554.4140124,77
2026-09-11 19:25:54.421,1789165554.4217048,-84
2026-09-11 19:25:54.429,1789165554.429397,-135
2026-09-11 19:25:54.437,1789165554.4370894,-232
2026-09-11 19:25:54.444,1789165554.4447818,-189
2026-09-11 19:25:54.452,1789165554.452474,-2
2026-09-11 19:25:54.460,1789165554.4601665,-87
2026-09-11 19:25:54.467,1789165554.4678586,-511
2026-09-11 19:25:54.475,1789165554.475551,-826
2026-09-11 19:25:54.483,1789165554.4832432,-863
2026-09-11 19:25:54.490,1789165554.4909356,-831
2026-09-11 19:25:54.498,1789165554.498628,-766
2026-09-11 19:25:54.506,1789165554.5063202,-591
2026-09-11 19:25:54.514,1789165554.5140126,-538
2026-09-11 19:25:54.521,1789165554.521705,-819
2026-09-11 19:25:54.529,1789165554.529397,-1122
2026-09-11 19:25:54.537,1789165554.5370893,-1198
2026-09-11 19:25:54.544,1789165554.5447817,-1326
2026-09-11 19:25:54.552,1789165554.552474,-1522
2026-09-11 19:25:54.560,1789165554.5601664,-1539
2026-09-11 19:25:54.567,1789165554.5678587,-1508
2026-09-11 19:25:54.575,1789165554.575551,-1525
2026-09-11 19:25:54.583,1789165554.5832434,-1459
2026-09-11 19:25:54.590,1789165554.5909357,-1336
2026-09-11 19:25:54.598,1789165554.5986278,-1268
2026-09-11 19:25:54.606,1789165554.6063201,-1202
2026-09-11 19:25:54.614,1789165554.6140125,-1059
2026-09-11 19:25:54.621,1789165554.6211429,-732
2026-09-11 19:25:54.628,1789165554.6288352,-266
2026-09-11 19:25:54.636,1789165554.6365275,-138
2026-09-11 19:25:54.644,1789165554.6442199,-354
2026-09-11 19:25:54.651,1789165554.6519122,-400
2026-09-11 19:25:54.659,1789165554.6596043,-327
2026-09-11 19:25:54.667,1789165554.6672966,-371
2026-09-11 19:25:54.674,1789165554.674989,-332
2026-09-11 19:25:54.682,1789165554.6826813,-138
2026-09-11 19:25:54.690,1789165554.6903737,-82
2026-09-11 19:25:54.698,1789165554.698066,-244
2026-09-11 19:25:54.705,1789165554.7057583,-375
2026-09-11 19:25:54.713,1789165554.7134507,-426
2026-09-11 19:25:54.721,1789165554.7211428,-567
2026-09-11 19:25:54.728,1789165554.728835,-756
2026-09-11 19:25:54.736,1789165554.7365274,-785
2026-09-11 19:25:54.744,1789165554.7442198,-763
2026-09-11 19:25:54.751,1789165554.751912,-887
2026-09-11 19:25:54.759,1789165554.7596045,-936
2026-09-11 19:25:54.767,1789165554.7672968,-826
2026-09-11 19:25:54.774,1789165554.7749891,-797
2026-09-11 19:25:54.782,1789165554.7826812,-814
2026-09-11 19:25:54.790,1789165554.7903736,-751
2026-09-11 19:25:54.798,1789165554.798066,-751
2026-09-11 19:25:54.805,1789165554.8057582,-824
2026-09-11 19:25:54.813,1789165554.8134506,-824
2026-09-11 19:25:54.821,1789165554.821143,-768
2026-09-11 19:25:54.828,1789165554.8288352,-608
2026-09-11 19:25:54.836,1789165554.8365276,-446
2026-09-11 19:25:54.844,1789165554.8442197,-679
2026-09-11 19:25:54.851,1789165554.851912,-1081
2026-09-11 19:25:54.859,1789165554.8596044,-1127
2026-09-11 19:25:54.867,1789165554.8672967,-1052
2026-09-11 19:25:54.874,1789165554.874989,-1127
2026-09-11 19:25:54.882,1789165554.8826814,-1171
2026-09-11 19:25:54.890,1789165554.8903737,-1139
2026-09-11 19:25:54.898,1789165554.898066,-1142
2026-09-11 19:25:54.905,1789165554.9057581,-1139
2026-09-11 19:25:54.913,1789165554.9134505,-1103
2026-09-11 19:25:54.921,1789165554.9211428,-1093
2026-09-11 19:25:54.928,1789165554.9288352,-1091
2026-09-11 19:25:54.936,1789165554.9365275,-1040
2026-09-11 19:25:54.944,1789165554.9442198,-967
2026-09-11 19:25:54.951,1789165554.9519122,-904
2026-09-11 19:25:54.959,1789165554.9596045,-848
2026-09-11 19:25:54.967,1789165554.9672966,-790
2026-09-11 19:25:54.974,1789165554.974989,-691
2026-09-11 19:25:54.982,1789165554.9826813,-463
2026-09-11 19:25:54.990,1789165554.9903736,-111
2026-09-11 19:25:54.998,1789165554.998066,266
2026-09-11 19:25:55.005,1789165555.0057583,249
2026-09-11 19:25:55.013,1789165555.0134506,-475
2026-09-11 19:25:55.021,1789165555.021143,-1088
2026-09-11 19:25:55.028,1789165555.028835,-890
2026-09-11 19:25:55.036,1789165555.0365274,-603
2026-09-11 19:25:55.044,1789165555.0442197,-679
2026-09-11 19:25:55.051,1789165555.051912,-696
2026-09-11 19:25:55.059,1789165555.0596044,-630
2026-09-11 19:25:55.067,1789165555.0672967,-630
2026-09-11 19:25:55.074,1789165555.074989,-582
2026-09-11 19:25:55.082,1789165555.0826814,-489
2026-09-11 19:25:55.090,1789165555.0903735,-451
2026-09-11 19:25:55.098,1789165555.0980659,-424
2026-09-11 19:25:55.105,1789165555.1057582,-363
2026-09-11 19:25:55.113,1789165555.1134505,-269
2026-09-11 19:25:55.121,1789165555.1211429,-116
2026-09-11 19:25:55.128,1789165555.1288352,-12
2026-09-11 19:25:55.136,1789165555.1365275,-89
2026-09-11 19:25:55.144,1789165555.1442199,-203
2026-09-11 19:25:55.151,1789165555.1519122,-203
2026-09-11 19:25:55.159,1789165555.1596043,-198
2026-09-11 19:25:55.167,1789165555.1672966,-269
2026-09-11 19:25:55.174,1789165555.174989,-303
2026-09-11 19:25:55.182,1789165555.1820893,-242
2026-09-11 19:25:55.189,1789165555.1897817,-138
2026-09-11 19:25:55.197,1789165555.197474,-36
2026-09-11 19:25:55.205,1789165555.2051663,31
2026-09-11 19:25:55.212,1789165555.2128587,65
2026-09-11 19:25:55.220,1789165555.2205508,101
2026-09-11 19:25:55.228,1789165555.228243,155
2026-09-11 19:25:55.235,1789165555.2359354,201
2026-09-11 19:25:55.243,1789165555.2436278,164
2026-09-11 19:25:55.251,1789165555.2513201,48
2026-09-11 19:25:55.259,1789165555.2590125,-48
2026-09-11 19:25:55.266,1789165555.2667048,-101
2026-09-11 19:25:55.274,1789165555.2743971,-157
2026-09-11 19:25:55.282,1789165555.2820892,-186
2026-09-11 19:25:55.289,1789165555.2897816,-215
2026-09-11 19:25:55.297,1789165555.297474,-266
2026-09-11 19:25:55.305,1789165555.3051662,-240
2026-09-11 19:25:55.312,1789165555.3128586,-80
2026-09-11 19:25:55.320,1789165555.320551,67
2026-09-11 19:25:55.328,1789165555.3282433,104
2026-09-11 19:25:55.335,1789165555.3359356,121
2026-09-11 19:25:55.343,1789165555.3436277,162
2026-09-11 19:25:55.351,1789165555.35132,181
2026-09-11 19:25:55.359,1789165555.3590124,242
2026-09-11 19:25:55.366,1789165555.3667047,327
2026-09-11 19:25:55.374,1789165555.374397,329
2026-09-11 19:25:55.382,1789165555.3820894,298
2026-09-11 19:25:55.389,1789165555.3897817,320
2026-09-11 19:25:55.397,1789165555.397474,409
2026-09-11 19:25:55.405,1789165555.4051661,526
2026-09-11 19:25:55.412,1789165555.4128585,569
2026-09-11 19:25:55.420,1789165555.4205508,601
2026-09-11 19:25:55.428,1789165555.4282432,700
2026-09-11 19:25:55.435,1789165555.4359355,729
2026-09-11 19:25:55.443,1789165555.4436278,662
2026-09-11 19:25:55.451,1789165555.4513202,589
2026-09-11 19:25:55.459,1789165555.4590125,499
2026-09-11 19:25:55.466,1789165555.4667046,446
2026-09-11 19:25:55.474,1789165555.474397,434
2026-09-11 19:25:55.482,1789165555.4820893,371
2026-09-11 19:25:55.489,1789165555.4897816,320
2026-09-11 19:25:55.497,1789165555.497474,378
2026-09-11 19:25:55.505,1789165555.5051663,499
2026-09-11 19:25:55.512,1789165555.5128586,686
2026-09-11 19:25:55.520,1789165555.520551,892
2026-09-11 19:25:55.528,1789165555.528243,955
2026-09-11 19:25:55.535,1789165555.5359354,882
2026-09-11 19:25:55.543,1789165555.5436277,916
2026-09-11 19:25:55.551,1789165555.55132,1241
2026-09-11 19:25:55.559,1789165555.5590124,1641
2026-09-11 19:25:55.566,1789165555.5667048,1714
2026-09-11 19:25:55.574,1789165555.574397,1632
2026-09-11 19:25:55.582,1789165555.5820894,1760
2026-09-11 19:25:55.589,1789165555.5897815,1937
2026-09-11 19:25:55.597,1789165555.5974739,2015
2026-09-11 19:25:55.605,1789165555.6051662,2185
2026-09-11 19:25:55.612,1789165555.6128585,2541
2026-09-11 19:25:55.620,1789165555.6205509,2861
2026-09-11 19:25:55.628,1789165555.6282432,2990
2026-09-11 19:25:55.635,1789165555.6359355,2939
2026-09-11 19:25:55.643,1789165555.643628,2655
2026-09-11 19:25:55.651,1789165555.65132,2308
2026-09-11 19:25:55.659,1789165555.6590123,2206
2026-09-11 19:25:55.666,1789165555.6667047,2335
2026-09-11 19:25:55.674,1789165555.674397,2522
2026-09-11 19:25:55.682,1789165555.6820893,2679
2026-09-11 19:25:55.689,1789165555.6897817,2737
2026-09-11 19:25:55.697,1789165555.697474,2672
2026-09-11 19:25:55.705,1789165555.7051663,2752
2026-09-11 19:25:55.712,1789165555.7128587,3135
2026-09-11 19:25:55.720,1789165555.7205508,3181
2026-09-11 19:25:55.728,1789165555.728243,2718
2026-09-11 19:25:55.735,1789165555.7359354,2733
2026-09-11 19:25:55.743,1789165555.7430458,3375
2026-09-11 19:25:55.750,1789165555.7507381,3802
2026-09-11 19:25:55.758,1789165555.7584305,3606
2026-09-11 19:25:55.766,1789165555.7661228,3426
2026-09-11 19:25:55.773,1789165555.7738152,4360
2026-09-11 19:25:55.781,1789165555.7815073,5640
2026-09-11 19:25:55.789,1789165555.7891996,4947
2026-09-11 19:25:55.796,1789165555.796892,2941
2026-09-11 19:25:55.804,1789165555.8045843,2560
2026-09-11 19:25:55.812,1789165555.8122766,3339
2026-09-11 19:25:55.819,1789165555.819969,3315
2026-09-11 19:25:55.827,1789165555.8276613,3096
2026-09-11 19:25:55.835,1789165555.8353536,3528
2026-09-11 19:25:55.843,1789165555.8430457,4285
2026-09-11 19:25:55.850,1789165555.850738,4828
2026-09-11 19:25:55.858,1789165555.8584304,4816
2026-09-11 19:25:55.866,1789165555.8661227,4762
2026-09-11 19:25:55.873,1789165555.873815,4993
2026-09-11 19:25:55.881,1789165555.8815074,4973
2026-09-11 19:25:55.889,1789165555.8891997,4670
2026-09-11 19:25:55.896,1789165555.896892,4850
2026-09-11 19:25:55.904,1789165555.9045842,6019
2026-09-11 19:25:55.912,1789165555.9122765,8216
2026-09-11 19:25:55.919,1789165555.9199688,10607
2026-09-11 19:25:55.927,1789165555.9276612,11558
2026-09-11 19:25:55.935,1789165555.9353535,11461
2026-09-11 19:25:55.943,1789165555.9430459,11781
2026-09-11 19:25:55.950,1789165555.9507382,12120
2026-09-11 19:25:55.958,1789165555.9584305,12026
2026-09-11 19:25:55.966,1789165555.9661226,11904
2026-09-11 19:25:55.973,1789165555.973815,11558
2026-09-11 19:25:55.981,1789165555.9815073,11061
2026-09-11 19:25:55.989,1789165555.9891996,10670
2026-09-11 19:25:55.996,1789165555.996892,9103
2026-09-11 19:25:56.004,1789165556.0045843,5766
2026-09-11 19:25:56.012,1789165556.0122766,1937
2026-09-11 19:25:56.019,1789165556.019969,-1348
2026-09-11 19:25:56.027,1789165556.027661,-3455
2026-09-11 19:25:56.035,1789165556.0353534,-4673
2026-09-11 19:25:56.043,1789165556.0430458,-5669
2026-09-11 19:25:56.050,1789165556.050738,-6310
2026-09-11 19:25:56.058,1789165556.0584304,-6676
2026-09-11 19:25:56.066,1789165556.0661228,-7064
2026-09-11 19:25:56.073,1789165556.073815,-7379
2026-09-11 19:25:56.081,1789165556.0815074,-7503
2026-09-11 19:25:56.089,1789165556.0891995,-7525
2026-09-11 19:25:56.096,1789165556.0968919,-7505
2026-09-11 19:25:56.104,1789165556.1045842,-7423
2026-09-11 19:25:56.112,1789165556.1122766,-7287
2026-09-11 19:25:56.119,1789165556.119969,-7149
2026-09-11 19:25:56.127,1789165556.1276612,-7069
2026-09-11 19:25:56.135,1789165556.1353536,-6952
2026-09-11 19:25:56.143,1789165556.143046,-6712
2026-09-11 19:25:56.150,1789165556.150738,-6504
2026-09-11 19:25:56.158,1789165556.1584303,-6368
2026-09-11 19:25:56.166,1789165556.1661227,-6198
2026-09-11 19:25:56.173,1789165556.173815,-5977
2026-09-11 19:25:56.181,1789165556.1815073,-5725
2026-09-11 19:25:56.189,1789165556.1891997,-5497
2026-09-11 19:25:56.196,1789165556.196892,-5308
2026-09-11 19:25:56.204,1789165556.2045844,-5126
2026-09-11 19:25:56.212,1789165556.2122765,-4988
2026-09-11 19:25:56.219,1789165556.2199688,-4886
2026-09-11 19:25:56.227,1789165556.2276611,-4755
2026-09-11 19:25:56.235,1789165556.2353535,-4617
2026-09-11 19:25:56.243,1789165556.2430458,-4442
2026-09-11 19:25:56.250,1789165556.2507381,-4236
2026-09-11 19:25:56.258,1789165556.2584305,-4166
2026-09-11 19:25:56.266,1789165556.2661228,-4144
2026-09-11 19:25:56.273,1789165556.2738152,-3948
2026-09-11 19:25:56.281,1789165556.2815073,-3678
2026-09-11 19:25:56.289,1789165556.2891996,-3482
2026-09-11 19:25:56.296,1789165556.296892,-3220
2026-09-11 19:25:56.304,1789165556.3040125,-2910
2026-09-11 19:25:56.311,1789165556.3117049,-2818
2026-09-11 19:25:56.319,1789165556.3193972,-2764
2026-09-11 19:25:56.327,1789165556.3270895,-2563
2026-09-11 19:25:56.334,1789165556.334782,-2539
2026-09-11 19:25:56.342,1789165556.342474,-2733
2026-09-11 19:25:56.350,1789165556.3501663,-2776
2026-09-11 19:25:56.357,1789165556.3578587,-2655
2026-09-11 19:25:56.365,1789165556.365551,-2497
2026-09-11 19:25:56.373,1789165556.3732433,-2337
2026-09-11 19:25:56.380,1789165556.3809357,-2245
2026-09-11 19:25:56.388,1789165556.388628,-2218
2026-09-11 19:25:56.396,1789165556.3963203,-2252
2026-09-11 19:25:56.404,1789165556.4040124,-2301
2026-09-11 19:25:56.411,1789165556.4117048,-2177
2026-09-11 19:25:56.419,1789165556.419397,-1954
2026-09-11 19:25:56.427,1789165556.4270895,-1872
2026-09-11 19:25:56.434,1789165556.4347818,-1830
2026-09-11 19:25:56.442,1789165556.4424741,-1738
2026-09-11 19:25:56.450,1789165556.4501665,-1653
2026-09-11 19:25:56.457,1789165556.4578588,-1544
2026-09-11 19:25:56.465,1789165556.465551,-1411
2026-09-11 19:25:56.473,1789165556.4732432,-1149
2026-09-11 19:25:56.480,1789165556.4809356,-574
2026-09-11 19:25:56.488,1789165556.488628,-48
2026-09-11 19:25:56.496,1789165556.4963202,-288
2026-09-11 19:25:56.504,1789165556.5040126,-1064
2026-09-11 19:25:56.511,1789165556.511705,-1166
2026-09-11 19:25:56.519,1789165556.5193973,-518
2026-09-11 19:25:56.527,1789165556.5270894,-293
2026-09-11 19:25:56.534,1789165556.5347817,-509
2026-09-11 19:25:56.542,1789165556.542474,-540
2026-09-11 19:25:56.550,1789165556.5501664,-652
2026-09-11 19:25:56.557,1789165556.5578587,-962
2026-09-11 19:25:56.565,1789165556.565551,-1074
2026-09-11 19:25:56.573,1789165556.5732434,-1006
2026-09-11 19:25:56.580,1789165556.5809357,-996
2026-09-11 19:25:56.588,1789165556.5886278,-979
2026-09-11 19:25:56.596,1789165556.5963202,-802
2026-09-11 19:25:56.604,1789165556.6040125,-569
2026-09-11 19:25:56.611,1789165556.6117048,-443
2026-09-11 19:25:56.619,1789165556.6193972,-368
2026-09-11 19:25:56.627,1789165556.6270895,-300
2026-09-11 19:25:56.634,1789165556.6347818,-269
2026-09-11 19:25:56.642,1789165556.6424742,-274
2026-09-11 19:25:56.650,1789165556.6501663,-291
2026-09-11 19:25:56.657,1789165556.6578586,-213
2026-09-11 19:25:56.665,1789165556.665551,-41
2026-09-11 19:25:56.673,1789165556.6732433,48
2026-09-11 19:25:56.680,1789165556.6809356,29
2026-09-11 19:25:56.688,1789165556.688628,-7
2026-09-11 19:25:56.696,1789165556.6963203,-55
2026-09-11 19:25:56.704,1789165556.7040126,-58
2026-09-11 19:25:56.711,1789165556.7117047,-14
2026-09-11 19:25:56.719,1789165556.719397,12
2026-09-11 19:25:56.727,1789165556.7270894,-55
2026-09-11 19:25:56.734,1789165556.7347817,-409
2026-09-11 19:25:56.742,1789165556.742474,-865
2026-09-11 19:25:56.750,1789165556.7501664,-999
2026-09-11 19:25:56.757,1789165556.7578588,-953
2026-09-11 19:25:56.765,1789165556.765551,-982
2026-09-11 19:25:56.773,1789165556.7732432,-953
2026-09-11 19:25:56.780,1789165556.7809355,-841
