timestamp_local,timestamp_epoch_s,ecg_uV
2026-09-13 19:03:50.371,1789337030.371606,-152
2026-09-13 19:03:50.379,1789337030.3792984,-155
2026-09-13 19:03:50.386,1789337030.3869908,-155
2026-09-13 19:03:50.394,1789337030.3946831,-157
2026-09-13 19:03:50.402,1789337030.4023755,-160
2026-09-13 19:03:50.410,1789337030.4100676,-157
2026-09-13 19:03:50.417,1789337030.41776,-155
2026-09-13 19:03:50.425,1789337030.4254522,-157
2026-09-13 19:03:50.433,1789337030.4331446,-157
2026-09-13 19:03:50.440,1789337030.440837,-155
2026-09-13 19:03:50.448,1789337030.4485292,-152
2026-09-13 19:03:50.456,1789337030.4562216,-152
2026-09-13 19:03:50.463,1789337030.463914,-152
2026-09-13 19:03:50.471,1789337030.471606,-150
2026-09-13 19:03:50.479,1789337030.4792984,-150
2026-09-13 19:03:50.486,1789337030.4869907,-150
2026-09-13 19:03:50.494,1789337030.494683,-145
2026-09-13 19:03:50.502,1789337030.5023754,-143
2026-09-13 19:03:50.510,1789337030.5100677,-140
2026-09-13 19:03:50.517,1789337030.51776,-140
2026-09-13 19:03:50.525,1789337030.5254524,-145
2026-09-13 19:03:50.533,1789337030.5331445,-152
2026-09-13 19:03:50.540,1789337030.5408368,-152
2026-09-13 19:03:50.548,1789337030.5485291,-140
2026-09-13 19:03:50.556,1789337030.5562215,-118
2026-09-13 19:03:50.563,1789337030.5639138,-87
2026-09-13 19:03:50.571,1789337030.5716062,-67
2026-09-13 19:03:50.579,1789337030.5792985,-67
2026-09-13 19:03:50.586,1789337030.5869908,-80
2026-09-13 19:03:50.594,1789337030.594683,-97
2026-09-13 19:03:50.602,1789337030.6023753,-113
2026-09-13 19:03:50.610,1789337030.6100676,-126
2026-09-13 19:03:50.617,1789337030.61776,-133
2026-09-13 19:03:50.625,1789337030.6254523,-135
2026-09-13 19:03:50.633,1789337030.6331446,-130
2026-09-13 19:03:50.640,1789337030.640837,-128
2026-09-13 19:03:50.648,1789337030.6485293,-130
2026-09-13 19:03:50.656,1789337030.6562214,-130
2026-09-13 19:03:50.663,1789337030.6639137,-130
2026-09-13 19:03:50.671,1789337030.671606,-101
2026-09-13 19:03:50.679,1789337030.6792984,19
2026-09-13 19:03:50.686,1789337030.6869907,227
2026-09-13 19:03:50.694,1789337030.694683,499
2026-09-13 19:03:50.702,1789337030.7023754,637
2026-09-13 19:03:50.710,1789337030.7100677,237
2026-09-13 19:03:50.717,1789337030.7177598,-363
2026-09-13 19:03:50.725,1789337030.7254522,-385
2026-09-13 19:03:50.733,1789337030.7331445,-133
2026-09-13 19:03:50.740,1789337030.7408369,-150
2026-09-13 19:03:50.748,1789337030.7485292,-201
2026-09-13 19:03:50.756,1789337030.7562215,-147
2026-09-13 19:03:50.763,1789337030.7639139,-143
2026-09-13 19:03:50.771,1789337030.7716062,-164
2026-09-13 19:03:50.779,1789337030.7792983,-143
2026-09-13 19:03:50.786,1789337030.7869906,-126
2026-09-13 19:03:50.794,1789337030.794683,-123
2026-09-13 19:03:50.802,1789337030.8023753,-113
2026-09-13 19:03:50.810,1789337030.8100677,-104
2026-09-13 19:03:50.817,1789337030.81776,-101
2026-09-13 19:03:50.825,1789337030.8254523,-92
2026-09-13 19:03:50.833,1789337030.8331447,-77
2026-09-13 19:03:50.840,1789337030.8408368,-63
2026-09-13 19:03:50.848,1789337030.848529,-53
2026-09-13 19:03:50.856,1789337030.8562214,-38
2026-09-13 19:03:50.863,1789337030.8639138,-19
2026-09-13 19:03:50.871,1789337030.871606,-7
2026-09-13 19:03:50.879,1789337030.8792984,4
2026-09-13 19:03:50.886,1789337030.8869908,19
2026-09-13 19:03:50.894,1789337030.8946831,24
2026-09-13 19:03:50.902,1789337030.9023755,19
2026-09-13 19:03:50.910,1789337030.9100676,21
2026-09-13 19:03:50.917,1789337030.91776,24
2026-09-13 19:03:50.925,1789337030.9254522,19
2026-09-13 19:03:50.932,1789337030.9325068,9
2026-09-13 19:03:50.940,1789337030.9401991,-7
2026-09-13 19:03:50.947,1789337030.9478915,-36
2026-09-13 19:03:50.955,1789337030.9555838,-67
2026-09-13 19:03:50.963,1789337030.9632761,-92
2026-09-13 19:03:50.970,1789337030.9709682,-116
2026-09-13 19:03:50.978,1789337030.9786606,-135
2026-09-13 19:03:50.986,1789337030.986353,-145
2026-09-13 19:03:50.994,1789337030.9940453,-150
2026-09-13 19:03:51.001,1789337031.0017376,-152
2026-09-13 19:03:51.009,1789337031.00943,-145
2026-09-13 19:03:51.017,1789337031.0171223,-133
2026-09-13 19:03:51.024,1789337031.0248146,-123
2026-09-13 19:03:51.032,1789337031.0325067,-118
2026-09-13 19:03:51.040,1789337031.040199,-116
2026-09-13 19:03:51.047,1789337031.0478914,-113
2026-09-13 19:03:51.055,1789337031.0555837,-109
2026-09-13 19:03:51.063,1789337031.063276,-104
2026-09-13 19:03:51.070,1789337031.0709684,-99
2026-09-13 19:03:51.078,1789337031.0786607,-94
2026-09-13 19:03:51.086,1789337031.086353,-99
2026-09-13 19:03:51.094,1789337031.0940452,-104
2026-09-13 19:03:51.101,1789337031.1017375,-104
2026-09-13 19:03:51.109,1789337031.1094298,-99
2026-09-13 19:03:51.117,1789337031.1171222,-99
2026-09-13 19:03:51.124,1789337031.1248145,-104
2026-09-13 19:03:51.132,1789337031.1325068,-104
2026-09-13 19:03:51.140,1789337031.1401992,-106
2026-09-13 19:03:51.147,1789337031.1478915,-106
2026-09-13 19:03:51.155,1789337031.1555836,-101
2026-09-13 19:03:51.163,1789337031.163276,-101
2026-09-13 19:03:51.170,1789337031.1709683,-101
2026-09-13 19:03:51.178,1789337031.1786606,-97
2026-09-13 19:03:51.186,1789337031.186353,-97
2026-09-13 19:03:51.194,1789337031.1940453,-97
2026-09-13 19:03:51.201,1789337031.2017376,-99
2026-09-13 19:03:51.209,1789337031.20943,-101
2026-09-13 19:03:51.217,1789337031.217122,-101
2026-09-13 19:03:51.224,1789337031.2248144,-99
2026-09-13 19:03:51.232,1789337031.2325068,-94
2026-09-13 19:03:51.240,1789337031.240199,-94
2026-09-13 19:03:51.247,1789337031.2478914,-99
2026-09-13 19:03:51.255,1789337031.2555838,-104
2026-09-13 19:03:51.263,1789337031.263276,-109
2026-09-13 19:03:51.270,1789337031.2709684,-116
2026-09-13 19:03:51.278,1789337031.2786605,-111
2026-09-13 19:03:51.286,1789337031.2863529,-97
2026-09-13 19:03:51.294,1789337031.2940452,-75
2026-09-13 19:03:51.301,1789337031.3017375,-46
2026-09-13 19:03:51.309,1789337031.30943,-26
2026-09-13 19:03:51.317,1789337031.3171222,-29
2026-09-13 19:03:51.324,1789337031.3248146,-41
2026-09-13 19:03:51.332,1789337031.332507,-63
2026-09-13 19:03:51.340,1789337031.340199,-89
2026-09-13 19:03:51.347,1789337031.3478913,-94
2026-09-13 19:03:51.355,1789337031.3555837,-92
2026-09-13 19:03:51.363,1789337031.363276,-94
2026-09-13 19:03:51.370,1789337031.3709683,-94
2026-09-13 19:03:51.378,1789337031.3786607,-87
2026-09-13 19:03:51.386,1789337031.386353,-84
2026-09-13 19:03:51.394,1789337031.3940454,-87
2026-09-13 19:03:51.401,1789337031.4017375,-80
2026-09-13 19:03:51.409,1789337031.4094298,4
2026-09-13 19:03:51.417,1789337031.4171221,220
2026-09-13 19:03:51.424,1789337031.4248145,535
2026-09-13 19:03:51.432,1789337031.4325068,807
2026-09-13 19:03:51.440,1789337031.4401991,574
2026-09-13 19:03:51.447,1789337031.4478915,-208
2026-09-13 19:03:51.455,1789337031.4555838,-552
2026-09-13 19:03:51.463,1789337031.4632761,-225
2026-09-13 19:03:51.470,1789337031.4709682,-84
2026-09-13 19:03:51.478,1789337031.4786606,-184
2026-09-13 19:03:51.486,1789337031.486353,-143
2026-09-13 19:03:51.493,1789337031.4934275,-97
2026-09-13 19:03:51.501,1789337031.5011199,-133
2026-09-13 19:03:51.508,1789337031.5088122,-133
2026-09-13 19:03:51.516,1789337031.5165045,-101
2026-09-13 19:03:51.524,1789337031.5241969,-94
2026-09-13 19:03:51.531,1789337031.531889,-97
2026-09-13 19:03:51.539,1789337031.5395813,-92
2026-09-13 19:03:51.547,1789337031.5472736,-82
2026-09-13 19:03:51.554,1789337031.554966,-65
2026-09-13 19:03:51.562,1789337031.5626583,-48
2026-09-13 19:03:51.570,1789337031.5703506,-31
2026-09-13 19:03:51.578,1789337031.578043,-21
2026-09-13 19:03:51.585,1789337031.5857353,-12
2026-09-13 19:03:51.593,1789337031.5934274,9
2026-09-13 19:03:51.601,1789337031.6011198,36
2026-09-13 19:03:51.608,1789337031.608812,58
2026-09-13 19:03:51.616,1789337031.6165044,75
2026-09-13 19:03:51.624,1789337031.6241968,89
2026-09-13 19:03:51.631,1789337031.631889,97
2026-09-13 19:03:51.639,1789337031.6395814,99
2026-09-13 19:03:51.647,1789337031.6472738,101
2026-09-13 19:03:51.654,1789337031.6549659,99
2026-09-13 19:03:51.662,1789337031.6626582,84
2026-09-13 19:03:51.670,1789337031.6703506,55
2026-09-13 19:03:51.678,1789337031.678043,14
2026-09-13 19:03:51.685,1789337031.6857352,-36
2026-09-13 19:03:51.693,1789337031.6934276,-80
2026-09-13 19:03:51.701,1789337031.70112,-113
2026-09-13 19:03:51.708,1789337031.7088122,-138
2026-09-13 19:03:51.716,1789337031.7165043,-155
2026-09-13 19:03:51.724,1789337031.7241967,-169
2026-09-13 19:03:51.731,1789337031.731889,-179
2026-09-13 19:03:51.739,1789337031.7395813,-177
2026-09-13 19:03:51.747,1789337031.7472737,-160
2026-09-13 19:03:51.754,1789337031.754966,-145
2026-09-13 19:03:51.762,1789337031.7626584,-143
2026-09-13 19:03:51.770,1789337031.7703507,-143
2026-09-13 19:03:51.778,1789337031.7780428,-135
2026-09-13 19:03:51.785,1789337031.7857351,-123
2026-09-13 19:03:51.793,1789337031.7934275,-116
2026-09-13 19:03:51.801,1789337031.8011198,-111
2026-09-13 19:03:51.808,1789337031.8088121,-104
2026-09-13 19:03:51.816,1789337031.8165045,-111
2026-09-13 19:03:51.824,1789337031.8241968,-116
2026-09-13 19:03:51.831,1789337031.8318892,-109
2026-09-13 19:03:51.839,1789337031.8395813,-99
2026-09-13 19:03:51.847,1789337031.8472736,-104
2026-09-13 19:03:51.854,1789337031.854966,-111
2026-09-13 19:03:51.862,1789337031.8626583,-109
2026-09-13 19:03:51.870,1789337031.8703506,-106
2026-09-13 19:03:51.878,1789337031.878043,-109
2026-09-13 19:03:51.885,1789337031.8857353,-106
2026-09-13 19:03:51.893,1789337031.8934276,-104
2026-09-13 19:03:51.901,1789337031.9011197,-113
2026-09-13 19:03:51.908,1789337031.908812,-121
2026-09-13 19:03:51.916,1789337031.9165044,-118
2026-09-13 19:03:51.924,1789337031.9241967,-118
2026-09-13 19:03:51.931,1789337031.931889,-121
2026-09-13 19:03:51.939,1789337031.9395814,-126
2026-09-13 19:03:51.947,1789337031.9472737,-118
2026-09-13 19:03:51.954,1789337031.954966,-104
2026-09-13 19:03:51.962,1789337031.9626582,-77
2026-09-13 19:03:51.970,1789337031.9703505,-50
2026-09-13 19:03:51.978,1789337031.9780428,-50
2026-09-13 19:03:51.985,1789337031.9857352,-75
2026-09-13 19:03:51.993,1789337031.9934275,-82
2026-09-13 19:03:52.001,1789337032.0011199,-89
2026-09-13 19:03:52.008,1789337032.0088122,-109
2026-09-13 19:03:52.016,1789337032.0165045,-104
2026-09-13 19:03:52.024,1789337032.0241969,-92
2026-09-13 19:03:52.031,1789337032.031889,-106
2026-09-13 19:03:52.039,1789337032.0395813,-116
2026-09-13 19:03:52.047,1789337032.0472736,-99
2026-09-13 19:03:52.054,1789337032.0543587,-82
2026-09-13 19:03:52.062,1789337032.062051,-80
2026-09-13 19:03:52.069,1789337032.0697434,-75
2026-09-13 19:03:52.077,1789337032.0774357,24
2026-09-13 19:03:52.085,1789337032.085128,300
2026-09-13 19:03:52.092,1789337032.0928202,669
2026-09-13 19:03:52.100,1789337032.1005125,853
2026-09-13 19:03:52.108,1789337032.1082048,443
2026-09-13 19:03:52.115,1789337032.1158972,-351
2026-09-13 19:03:52.123,1789337032.1235895,-543
2026-09-13 19:03:52.131,1789337032.1312819,-167
2026-09-13 19:03:52.138,1789337032.1389742,-94
2026-09-13 19:03:52.146,1789337032.1466665,-201
2026-09-13 19:03:52.154,1789337032.1543586,-128
2026-09-13 19:03:52.162,1789337032.162051,-97
2026-09-13 19:03:52.169,1789337032.1697433,-147
2026-09-13 19:03:52.177,1789337032.1774356,-126
2026-09-13 19:03:52.185,1789337032.185128,-89
2026-09-13 19:03:52.192,1789337032.1928203,-94
2026-09-13 19:03:52.200,1789337032.2005126,-84
2026-09-13 19:03:52.208,1789337032.208205,-65
2026-09-13 19:03:52.215,1789337032.215897,-58
2026-09-13 19:03:52.223,1789337032.2235894,-53
2026-09-13 19:03:52.231,1789337032.2312818,-38
2026-09-13 19:03:52.238,1789337032.238974,-16
2026-09-13 19:03:52.246,1789337032.2466664,-7
2026-09-13 19:03:52.254,1789337032.2543588,0
2026-09-13 19:03:52.262,1789337032.262051,26
2026-09-13 19:03:52.269,1789337032.2697434,63
2026-09-13 19:03:52.277,1789337032.2774355,89
2026-09-13 19:03:52.285,1789337032.2851279,121
2026-09-13 19:03:52.292,1789337032.2928202,145
2026-09-13 19:03:52.300,1789337032.3005126,130
2026-09-13 19:03:52.308,1789337032.308205,111
2026-09-13 19:03:52.315,1789337032.3158972,128
2026-09-13 19:03:52.323,1789337032.3235896,135
2026-09-13 19:03:52.331,1789337032.331282,104
2026-09-13 19:03:52.338,1789337032.338974,60
2026-09-13 19:03:52.346,1789337032.3466663,12
2026-09-13 19:03:52.354,1789337032.3543587,-48
2026-09-13 19:03:52.362,1789337032.362051,-97
2026-09-13 19:03:52.369,1789337032.3697433,-128
2026-09-13 19:03:52.377,1789337032.3774357,-150
2026-09-13 19:03:52.385,1789337032.385128,-162
2026-09-13 19:03:52.392,1789337032.3928204,-164
2026-09-13 19:03:52.400,1789337032.4005125,-169
2026-09-13 19:03:52.408,1789337032.4082048,-174
2026-09-13 19:03:52.415,1789337032.4158971,-169
2026-09-13 19:03:52.423,1789337032.4235895,-157
2026-09-13 19:03:52.431,1789337032.4312818,-147
2026-09-13 19:03:52.438,1789337032.4389741,-138
2026-09-13 19:03:52.446,1789337032.4466665,-133
2026-09-13 19:03:52.454,1789337032.4543588,-126
2026-09-13 19:03:52.462,1789337032.462051,-113
2026-09-13 19:03:52.469,1789337032.4697433,-111
2026-09-13 19:03:52.477,1789337032.4774356,-113
2026-09-13 19:03:52.485,1789337032.485128,-106
2026-09-13 19:03:52.492,1789337032.4928203,-101
2026-09-13 19:03:52.500,1789337032.5005126,-106
2026-09-13 19:03:52.508,1789337032.508205,-97
2026-09-13 19:03:52.515,1789337032.5158973,-94
2026-09-13 19:03:52.523,1789337032.5235894,-111
2026-09-13 19:03:52.531,1789337032.5312817,-118
2026-09-13 19:03:52.538,1789337032.538974,-106
2026-09-13 19:03:52.546,1789337032.5466664,-109
2026-09-13 19:03:52.554,1789337032.5543587,-123
2026-09-13 19:03:52.562,1789337032.562051,-128
2026-09-13 19:03:52.569,1789337032.5697434,-121
2026-09-13 19:03:52.577,1789337032.5774357,-116
2026-09-13 19:03:52.585,1789337032.585128,-123
2026-09-13 19:03:52.592,1789337032.5928202,-109
2026-09-13 19:03:52.600,1789337032.6005125,-72
2026-09-13 19:03:52.608,1789337032.6082048,-67
2026-09-13 19:03:52.615,1789337032.6152744,-80
2026-09-13 19:03:52.622,1789337032.6229668,-65
2026-09-13 19:03:52.630,1789337032.630659,-70
2026-09-13 19:03:52.638,1789337032.6383514,-104
2026-09-13 19:03:52.646,1789337032.6460438,-111
2026-09-13 19:03:52.653,1789337032.6537359,-113
2026-09-13 19:03:52.661,1789337032.6614282,-133
2026-09-13 19:03:52.669,1789337032.6691206,-138
2026-09-13 19:03:52.676,1789337032.676813,-118
2026-09-13 19:03:52.684,1789337032.6845052,-118
2026-09-13 19:03:52.692,1789337032.6921976,-128
2026-09-13 19:03:52.699,1789337032.69989,-118
2026-09-13 19:03:52.707,1789337032.7075822,-97
2026-09-13 19:03:52.715,1789337032.7152743,-2
2026-09-13 19:03:52.722,1789337032.7229667,286
2026-09-13 19:03:52.730,1789337032.730659,676
2026-09-13 19:03:52.738,1789337032.7383513,829
2026-09-13 19:03:52.746,1789337032.7460437,356
2026-09-13 19:03:52.753,1789337032.753736,-417
2026-09-13 19:03:52.761,1789337032.7614284,-533
2026-09-13 19:03:52.769,1789337032.7691207,-164
2026-09-13 19:03:52.776,1789337032.7768128,-133
2026-09-13 19:03:52.784,1789337032.7845051,-235
2026-09-13 19:03:52.792,1789337032.7921975,-157
2026-09-13 19:03:52.799,1789337032.7998898,-138
2026-09-13 19:03:52.807,1789337032.8075821,-186
2026-09-13 19:03:52.815,1789337032.8152745,-167
2026-09-13 19:03:52.822,1789337032.8229668,-135
2026-09-13 19:03:52.830,1789337032.8306592,-135
2026-09-13 19:03:52.838,1789337032.8383512,-135
2026-09-13 19:03:52.846,1789337032.8460436,-113
2026-09-13 19:03:52.853,1789337032.853736,-109
2026-09-13 19:03:52.861,1789337032.8614283,-116
2026-09-13 19:03:52.869,1789337032.8691206,-94
2026-09-13 19:03:52.876,1789337032.876813,-63
2026-09-13 19:03:52.884,1789337032.8845053,-65
2026-09-13 19:03:52.892,1789337032.8921976,-67
2026-09-13 19:03:52.899,1789337032.8998897,-36
2026-09-13 19:03:52.907,1789337032.907582,-2
2026-09-13 19:03:52.915,1789337032.9152744,4
2026-09-13 19:03:52.922,1789337032.9229667,26
2026-09-13 19:03:52.930,1789337032.930659,50
2026-09-13 19:03:52.938,1789337032.9383514,43
2026-09-13 19:03:52.946,1789337032.9460437,33
2026-09-13 19:03:52.953,1789337032.953736,29
2026-09-13 19:03:52.961,1789337032.9614282,7
2026-09-13 19:03:52.969,1789337032.9691205,-24
2026-09-13 19:03:52.976,1789337032.9768128,-58
2026-09-13 19:03:52.984,1789337032.9845052,-99
2026-09-13 19:03:52.992,1789337032.9921975,-145
2026-09-13 19:03:52.999,1789337032.9998899,-194
2026-09-13 19:03:53.007,1789337033.0075822,-223
2026-09-13 19:03:53.015,1789337033.0152745,-230
2026-09-13 19:03:53.022,1789337033.0229666,-235
2026-09-13 19:03:53.030,1789337033.030659,-247
2026-09-13 19:03:53.038,1789337033.0383513,-244
2026-09-13 19:03:53.046,1789337033.0460436,-240
2026-09-13 19:03:53.053,1789337033.053736,-240
2026-09-13 19:03:53.061,1789337033.0614283,-232
2026-09-13 19:03:53.069,1789337033.0691206,-227
2026-09-13 19:03:53.076,1789337033.076813,-218
2026-09-13 19:03:53.084,1789337033.084505,-206
2026-09-13 19:03:53.092,1789337033.0921974,-206
2026-09-13 19:03:53.099,1789337033.0998898,-203
2026-09-13 19:03:53.107,1789337033.107582,-194
2026-09-13 19:03:53.115,1789337033.1152744,-191
2026-09-13 19:03:53.122,1789337033.1229668,-196
2026-09-13 19:03:53.130,1789337033.130659,-196
2026-09-13 19:03:53.138,1789337033.1383514,-191
2026-09-13 19:03:53.146,1789337033.1460438,-191
2026-09-13 19:03:53.153,1789337033.1537359,-203
2026-09-13 19:03:53.161,1789337033.1614282,-208
2026-09-13 19:03:53.169,1789337033.1691206,-208
2026-09-13 19:03:53.176,1789337033.1761901,-206
2026-09-13 19:03:53.183,1789337033.1838825,-210
2026-09-13 19:03:53.191,1789337033.1915748,-220
2026-09-13 19:03:53.199,1789337033.1992671,-223
2026-09-13 19:03:53.206,1789337033.2069595,-220
2026-09-13 19:03:53.214,1789337033.2146516,-203
2026-09-13 19:03:53.222,1789337033.222344,-179
2026-09-13 19:03:53.230,1789337033.2300363,-167
2026-09-13 19:03:53.237,1789337033.2377286,-169
2026-09-13 19:03:53.245,1789337033.245421,-181
2026-09-13 19:03:53.253,1789337033.2531133,-206
2026-09-13 19:03:53.260,1789337033.2608056,-227
2026-09-13 19:03:53.268,1789337033.268498,-232
2026-09-13 19:03:53.276,1789337033.27619,-225
2026-09-13 19:03:53.283,1789337033.2838824,-227
2026-09-13 19:03:53.291,1789337033.2915747,-232
2026-09-13 19:03:53.299,1789337033.299267,-227
2026-09-13 19:03:53.306,1789337033.3069594,-223
2026-09-13 19:03:53.314,1789337033.3146517,-225
2026-09-13 19:03:53.322,1789337033.322344,-227
2026-09-13 19:03:53.330,1789337033.3300364,-186
2026-09-13 19:03:53.337,1789337033.3377285,-14
2026-09-13 19:03:53.345,1789337033.3454208,310
2026-09-13 19:03:53.353,1789337033.3531132,640
2026-09-13 19:03:53.360,1789337033.3608055,594
2026-09-13 19:03:53.368,1789337033.3684978,-72
2026-09-13 19:03:53.376,1789337033.3761902,-640
2026-09-13 19:03:53.383,1789337033.3838825,-455
2026-09-13 19:03:53.391,1789337033.3915749,-189
2026-09-13 19:03:53.399,1789337033.399267,-286
2026-09-13 19:03:53.406,1789337033.4069593,-329
2026-09-13 19:03:53.414,1789337033.4146516,-254
2026-09-13 19:03:53.422,1789337033.422344,-266
2026-09-13 19:03:53.430,1789337033.4300363,-286
2026-09-13 19:03:53.437,1789337033.4377286,-254
2026-09-13 19:03:53.445,1789337033.445421,-242
2026-09-13 19:03:53.453,1789337033.4531133,-244
2026-09-13 19:03:53.460,1789337033.4608054,-232
2026-09-13 19:03:53.468,1789337033.4684978,-223
2026-09-13 19:03:53.476,1789337033.47619,-218
2026-09-13 19:03:53.483,1789337033.4838824,-206
2026-09-13 19:03:53.491,1789337033.4915748,-194
2026-09-13 19:03:53.499,1789337033.499267,-184
2026-09-13 19:03:53.506,1789337033.5069594,-169
2026-09-13 19:03:53.514,1789337033.5146518,-150
2026-09-13 19:03:53.522,1789337033.5223439,-133
2026-09-13 19:03:53.530,1789337033.5300362,-116
2026-09-13 19:03:53.537,1789337033.5377285,-101
2026-09-13 19:03:53.545,1789337033.545421,-89
2026-09-13 19:03:53.553,1789337033.5531132,-80
2026-09-13 19:03:53.560,1789337033.5608056,-82
2026-09-13 19:03:53.568,1789337033.568498,-92
2026-09-13 19:03:53.576,1789337033.5761902,-99
2026-09-13 19:03:53.583,1789337033.5838823,-111
2026-09-13 19:03:53.591,1789337033.5915747,-135
2026-09-13 19:03:53.599,1789337033.599267,-174
2026-09-13 19:03:53.606,1789337033.6069593,-210
2026-09-13 19:03:53.614,1789337033.6146517,-237
2026-09-13 19:03:53.622,1789337033.622344,-261
2026-09-13 19:03:53.630,1789337033.6300364,-276
2026-09-13 19:03:53.637,1789337033.6377287,-278
2026-09-13 19:03:53.645,1789337033.6454208,-283
2026-09-13 19:03:53.653,1789337033.6531131,-288
2026-09-13 19:03:53.660,1789337033.6608055,-283
2026-09-13 19:03:53.668,1789337033.6684978,-271
2026-09-13 19:03:53.676,1789337033.6761901,-264
2026-09-13 19:03:53.683,1789337033.6838825,-257
2026-09-13 19:03:53.691,1789337033.6915748,-252
2026-09-13 19:03:53.699,1789337033.6992671,-244
2026-09-13 19:03:53.706,1789337033.7069595,-235
2026-09-13 19:03:53.714,1789337033.7146516,-225
2026-09-13 19:03:53.722,1789337033.722344,-220
2026-09-13 19:03:53.730,1789337033.7300363,-215
2026-09-13 19:03:53.737,1789337033.7371314,-213
2026-09-13 19:03:53.744,1789337033.7448237,-218
2026-09-13 19:03:53.752,1789337033.752516,-218
2026-09-13 19:03:53.760,1789337033.7602084,-218
2026-09-13 19:03:53.767,1789337033.7679007,-220
2026-09-13 19:03:53.775,1789337033.7755928,-218
2026-09-13 19:03:53.783,1789337033.7832851,-218
2026-09-13 19:03:53.790,1789337033.7909775,-225
2026-09-13 19:03:53.798,1789337033.7986698,-232
2026-09-13 19:03:53.806,1789337033.8063622,-235
2026-09-13 19:03:53.814,1789337033.8140545,-230
2026-09-13 19:03:53.821,1789337033.8217468,-220
2026-09-13 19:03:53.829,1789337033.8294392,-213
2026-09-13 19:03:53.837,1789337033.8371313,-196
2026-09-13 19:03:53.844,1789337033.8448236,-174
2026-09-13 19:03:53.852,1789337033.852516,-164
2026-09-13 19:03:53.860,1789337033.8602083,-174
2026-09-13 19:03:53.867,1789337033.8679006,-189
2026-09-13 19:03:53.875,1789337033.875593,-206
2026-09-13 19:03:53.883,1789337033.8832853,-218
2026-09-13 19:03:53.890,1789337033.8909776,-218
2026-09-13 19:03:53.898,1789337033.8986697,-218
2026-09-13 19:03:53.906,1789337033.906362,-210
2026-09-13 19:03:53.914,1789337033.9140544,-203
2026-09-13 19:03:53.921,1789337033.9217467,-206
2026-09-13 19:03:53.929,1789337033.929439,-210
2026-09-13 19:03:53.937,1789337033.9371314,-210
2026-09-13 19:03:53.944,1789337033.9448237,-172
2026-09-13 19:03:53.952,1789337033.952516,-19
2026-09-13 19:03:53.960,1789337033.9602082,281
2026-09-13 19:03:53.967,1789337033.9679005,674
2026-09-13 19:03:53.975,1789337033.9755929,773
2026-09-13 19:03:53.983,1789337033.9832852,162
2026-09-13 19:03:53.990,1789337033.9909775,-516
2026-09-13 19:03:53.998,1789337033.9986699,-438
2026-09-13 19:03:54.006,1789337034.0063622,-164
2026-09-13 19:03:54.014,1789337034.0140545,-254
2026-09-13 19:03:54.021,1789337034.0217466,-317
2026-09-13 19:03:54.029,1789337034.029439,-232
2026-09-13 19:03:54.037,1789337034.0371313,-235
2026-09-13 19:03:54.044,1789337034.0448236,-261
2026-09-13 19:03:54.052,1789337034.052516,-227
2026-09-13 19:03:54.060,1789337034.0602083,-208
2026-09-13 19:03:54.067,1789337034.0679007,-210
2026-09-13 19:03:54.075,1789337034.075593,-196
2026-09-13 19:03:54.083,1789337034.083285,-186
2026-09-13 19:03:54.090,1789337034.0909774,-181
2026-09-13 19:03:54.098,1789337034.0986698,-172
2026-09-13 19:03:54.106,1789337034.106362,-157
2026-09-13 19:03:54.114,1789337034.1140544,-150
2026-09-13 19:03:54.121,1789337034.1217468,-143
2026-09-13 19:03:54.129,1789337034.129439,-128
2026-09-13 19:03:54.137,1789337034.1371315,-113
2026-09-13 19:03:54.144,1789337034.1448236,-101
2026-09-13 19:03:54.152,1789337034.152516,-89
2026-09-13 19:03:54.160,1789337034.1602082,-82
2026-09-13 19:03:54.167,1789337034.1679006,-82
2026-09-13 19:03:54.175,1789337034.175593,-87
2026-09-13 19:03:54.183,1789337034.1832852,-94
2026-09-13 19:03:54.190,1789337034.1909776,-99
2026-09-13 19:03:54.198,1789337034.19867,-106
2026-09-13 19:03:54.206,1789337034.206362,-118
2026-09-13 19:03:54.214,1789337034.2140543,-140
2026-09-13 19:03:54.221,1789337034.2217467,-162
2026-09-13 19:03:54.229,1789337034.229439,-179
2026-09-13 19:03:54.237,1789337034.2371314,-189
2026-09-13 19:03:54.244,1789337034.2448237,-196
2026-09-13 19:03:54.252,1789337034.252516,-201
2026-09-13 19:03:54.260,1789337034.2602084,-203
2026-09-13 19:03:54.267,1789337034.2679007,-201
2026-09-13 19:03:54.275,1789337034.2755928,-189
2026-09-13 19:03:54.283,1789337034.2832851,-181
2026-09-13 19:03:54.290,1789337034.2909775,-174
2026-09-13 19:03:54.298,1789337034.2980523,-164
2026-09-13 19:03:54.305,1789337034.3057446,-155
2026-09-13 19:03:54.313,1789337034.313437,-150
2026-09-13 19:03:54.321,1789337034.3211293,-147
2026-09-13 19:03:54.328,1789337034.3288217,-145
2026-09-13 19:03:54.336,1789337034.3365138,-140
2026-09-13 19:03:54.344,1789337034.344206,-135
2026-09-13 19:03:54.351,1789337034.3518984,-138
2026-09-13 19:03:54.359,1789337034.3595908,-138
2026-09-13 19:03:54.367,1789337034.367283,-140
2026-09-13 19:03:54.374,1789337034.3749754,-145
2026-09-13 19:03:54.382,1789337034.3826678,-145
2026-09-13 19:03:54.390,1789337034.39036,-140
2026-09-13 19:03:54.398,1789337034.3980522,-138
2026-09-13 19:03:54.405,1789337034.4057446,-140
2026-09-13 19:03:54.413,1789337034.413437,-143
2026-09-13 19:03:54.421,1789337034.4211292,-145
2026-09-13 19:03:54.428,1789337034.4288216,-147
2026-09-13 19:03:54.436,1789337034.436514,-152
2026-09-13 19:03:54.444,1789337034.4442062,-155
2026-09-13 19:03:54.451,1789337034.4518986,-147
2026-09-13 19:03:54.459,1789337034.4595907,-138
2026-09-13 19:03:54.467,1789337034.467283,-123
2026-09-13 19:03:54.474,1789337034.4749753,-101
2026-09-13 19:03:54.482,1789337034.4826677,-82
2026-09-13 19:03:54.490,1789337034.49036,-77
2026-09-13 19:03:54.498,1789337034.4980524,-84
2026-09-13 19:03:54.505,1789337034.5057447,-104
2026-09-13 19:03:54.513,1789337034.513437,-121
2026-09-13 19:03:54.521,1789337034.5211291,-128
2026-09-13 19:03:54.528,1789337034.5288215,-130
2026-09-13 19:03:54.536,1789337034.5365138,-133
2026-09-13 19:03:54.544,1789337034.5442061,-130
2026-09-13 19:03:54.551,1789337034.5518985,-128
2026-09-13 19:03:54.559,1789337034.5595908,-123
2026-09-13 19:03:54.567,1789337034.5672832,-123
2026-09-13 19:03:54.574,1789337034.5749755,-121
2026-09-13 19:03:54.582,1789337034.5826676,-60
2026-09-13 19:03:54.590,1789337034.59036,128
2026-09-13 19:03:54.598,1789337034.5980523,448
2026-09-13 19:03:54.605,1789337034.6057446,836
2026-09-13 19:03:54.613,1789337034.613437,843
2026-09-13 19:03:54.621,1789337034.6211293,109
2026-09-13 19:03:54.628,1789337034.6288216,-502
2026-09-13 19:03:54.636,1789337034.636514,-310
2026-09-13 19:03:54.644,1789337034.644206,-89
2026-09-13 19:03:54.651,1789337034.6518984,-225
2026-09-13 19:03:54.659,1789337034.6595907,-249
2026-09-13 19:03:54.667,1789337034.667283,-162
2026-09-13 19:03:54.674,1789337034.6749754,-184
2026-09-13 19:03:54.682,1789337034.6826677,-201
2026-09-13 19:03:54.690,1789337034.69036,-162
2026-09-13 19:03:54.698,1789337034.6980524,-150
2026-09-13 19:03:54.705,1789337034.7057445,-155
2026-09-13 19:03:54.713,1789337034.7134368,-138
2026-09-13 19:03:54.721,1789337034.7211292,-123
2026-09-13 19:03:54.728,1789337034.7288215,-121
2026-09-13 19:03:54.736,1789337034.7365139,-113
2026-09-13 19:03:54.744,1789337034.7442062,-101
2026-09-13 19:03:54.751,1789337034.7518985,-94
2026-09-13 19:03:54.759,1789337034.7595909,-82
2026-09-13 19:03:54.767,1789337034.767283,-70
2026-09-13 19:03:54.774,1789337034.7749753,-60
2026-09-13 19:03:54.782,1789337034.7826676,-48
2026-09-13 19:03:54.790,1789337034.79036,-38
2026-09-13 19:03:54.798,1789337034.7980523,-36
2026-09-13 19:03:54.805,1789337034.8057446,-33
2026-09-13 19:03:54.813,1789337034.813437,-38
2026-09-13 19:03:54.821,1789337034.8211293,-48
2026-09-13 19:03:54.828,1789337034.8288217,-53
2026-09-13 19:03:54.836,1789337034.8365138,-60
2026-09-13 19:03:54.844,1789337034.844206,-72
2026-09-13 19:03:54.851,1789337034.8518984,-92
2026-09-13 19:03:54.858,1789337034.858983,-113
2026-09-13 19:03:54.866,1789337034.8666754,-130
2026-09-13 19:03:54.874,1789337034.8743677,-147
2026-09-13 19:03:54.882,1789337034.88206,-157
2026-09-13 19:03:54.889,1789337034.8897524,-160
2026-09-13 19:03:54.897,1789337034.8974445,-162
2026-09-13 19:03:54.905,1789337034.9051368,-162
2026-09-13 19:03:54.912,1789337034.9128292,-160
2026-09-13 19:03:54.920,1789337034.9205215,-155
2026-09-13 19:03:54.928,1789337034.9282138,-147
2026-09-13 19:03:54.935,1789337034.9359062,-138
2026-09-13 19:03:54.943,1789337034.9435985,-128
2026-09-13 19:03:54.951,1789337034.9512908,-123
2026-09-13 19:03:54.958,1789337034.958983,-126
2026-09-13 19:03:54.966,1789337034.9666753,-123
2026-09-13 19:03:54.974,1789337034.9743676,-113
2026-09-13 19:03:54.982,1789337034.98206,-111
2026-09-13 19:03:54.989,1789337034.9897523,-113
2026-09-13 19:03:54.997,1789337034.9974446,-113
2026-09-13 19:03:55.005,1789337035.005137,-113
2026-09-13 19:03:55.012,1789337035.0128293,-111
2026-09-13 19:03:55.020,1789337035.0205214,-106
2026-09-13 19:03:55.028,1789337035.0282137,-109
2026-09-13 19:03:55.035,1789337035.035906,-111
2026-09-13 19:03:55.043,1789337035.0435984,-111
2026-09-13 19:03:55.051,1789337035.0512908,-116
2026-09-13 19:03:55.058,1789337035.058983,-113
2026-09-13 19:03:55.066,1789337035.0666754,-109
2026-09-13 19:03:55.074,1789337035.0743678,-111
2026-09-13 19:03:55.082,1789337035.0820599,-109
2026-09-13 19:03:55.089,1789337035.0897522,-106
2026-09-13 19:03:55.097,1789337035.0974445,-106
2026-09-13 19:03:55.105,1789337035.1051369,-104
2026-09-13 19:03:55.112,1789337035.1128292,-101
2026-09-13 19:03:55.120,1789337035.1205215,-106
2026-09-13 19:03:55.128,1789337035.128214,-111
2026-09-13 19:03:55.135,1789337035.1359062,-109
2026-09-13 19:03:55.143,1789337035.1435983,-97
2026-09-13 19:03:55.151,1789337035.1512907,-87
2026-09-13 19:03:55.158,1789337035.158983,-70
2026-09-13 19:03:55.166,1789337035.1666753,-43
2026-09-13 19:03:55.174,1789337035.1743677,-26
2026-09-13 19:03:55.182,1789337035.18206,-29
2026-09-13 19:03:55.189,1789337035.1897523,-46
2026-09-13 19:03:55.197,1789337035.1974447,-63
2026-09-13 19:03:55.205,1789337035.2051368,-77
2026-09-13 19:03:55.212,1789337035.212829,-87
2026-09-13 19:03:55.220,1789337035.2205215,-87
2026-09-13 19:03:55.228,1789337035.2282138,-84
2026-09-13 19:03:55.235,1789337035.2359061,-80
2026-09-13 19:03:55.243,1789337035.2435985,-72
2026-09-13 19:03:55.251,1789337035.2512908,-75
2026-09-13 19:03:55.258,1789337035.2589831,-82
2026-09-13 19:03:55.266,1789337035.2666752,-46
2026-09-13 19:03:55.274,1789337035.2743676,94
2026-09-13 19:03:55.282,1789337035.28206,334
2026-09-13 19:03:55.289,1789337035.2897522,676
2026-09-13 19:03:55.297,1789337035.2974446,899
2026-09-13 19:03:55.305,1789337035.305137,458
2026-09-13 19:03:55.312,1789337035.3128293,-312
2026-09-13 19:03:55.320,1789337035.3205216,-400
2026-09-13 19:03:55.328,1789337035.3282137,-80
2026-09-13 19:03:55.335,1789337035.335906,-109
2026-09-13 19:03:55.343,1789337035.3435984,-210
2026-09-13 19:03:55.351,1789337035.3512907,-133
2026-09-13 19:03:55.358,1789337035.358983,-116
2026-09-13 19:03:55.366,1789337035.3666754,-155
2026-09-13 19:03:55.374,1789337035.3743677,-128
2026-09-13 19:03:55.382,1789337035.38206,-99
2026-09-13 19:03:55.389,1789337035.3897524,-104
2026-09-13 19:03:55.397,1789337035.3974445,-99
2026-09-13 19:03:55.405,1789337035.4051368,-84
2026-09-13 19:03:55.412,1789337035.4128292,-80
2026-09-13 19:03:55.419,1789337035.4199142,-75
2026-09-13 19:03:55.427,1789337035.4276066,-63
2026-09-13 19:03:55.435,1789337035.435299,-53
2026-09-13 19:03:55.442,1789337035.4429913,-46
2026-09-13 19:03:55.450,1789337035.4506836,-33
2026-09-13 19:03:55.458,1789337035.4583757,-19
2026-09-13 19:03:55.466,1789337035.466068,-12
2026-09-13 19:03:55.473,1789337035.4737604,-2
2026-09-13 19:03:55.481,1789337035.4814527,9
2026-09-13 19:03:55.489,1789337035.489145,14
2026-09-13 19:03:55.496,1789337035.4968374,7
2026-09-13 19:03:55.504,1789337035.5045297,0
2026-09-13 19:03:55.512,1789337035.512222,2
2026-09-13 19:03:55.519,1789337035.5199142,0
2026-09-13 19:03:55.527,1789337035.5276065,-9
2026-09-13 19:03:55.535,1789337035.5352988,-24
2026-09-13 19:03:55.542,1789337035.5429912,-46
2026-09-13 19:03:55.550,1789337035.5506835,-67
2026-09-13 19:03:55.558,1789337035.5583758,-84
2026-09-13 19:03:55.566,1789337035.5660682,-104
2026-09-13 19:03:55.573,1789337035.5737605,-118
2026-09-13 19:03:55.581,1789337035.5814526,-121
2026-09-13 19:03:55.589,1789337035.589145,-121
2026-09-13 19:03:55.596,1789337035.5968373,-118
2026-09-13 19:03:55.604,1789337035.6045296,-111
2026-09-13 19:03:55.612,1789337035.612222,-104
2026-09-13 19:03:55.619,1789337035.6199143,-97
2026-09-13 19:03:55.627,1789337035.6276066,-89
2026-09-13 19:03:55.635,1789337035.635299,-77
2026-09-13 19:03:55.642,1789337035.642991,-72
2026-09-13 19:03:55.650,1789337035.6506834,-75
2026-09-13 19:03:55.658,1789337035.6583757,-75
2026-09-13 19:03:55.666,1789337035.666068,-72
2026-09-13 19:03:55.673,1789337035.6737604,-70
2026-09-13 19:03:55.681,1789337035.6814528,-70
2026-09-13 19:03:55.689,1789337035.689145,-67
2026-09-13 19:03:55.696,1789337035.6968374,-70
2026-09-13 19:03:55.704,1789337035.7045295,-67
2026-09-13 19:03:55.712,1789337035.7122219,-65
2026-09-13 19:03:55.719,1789337035.7199142,-70
2026-09-13 19:03:55.727,1789337035.7276065,-72
2026-09-13 19:03:55.735,1789337035.7352989,-70
2026-09-13 19:03:55.742,1789337035.7429912,-67
2026-09-13 19:03:55.750,1789337035.7506835,-70
2026-09-13 19:03:55.758,1789337035.758376,-70
2026-09-13 19:03:55.766,1789337035.766068,-70
2026-09-13 19:03:55.773,1789337035.7737603,-77
2026-09-13 19:03:55.781,1789337035.7814527,-77
2026-09-13 19:03:55.789,1789337035.789145,-70
2026-09-13 19:03:55.796,1789337035.7968373,-70
2026-09-13 19:03:55.804,1789337035.8045297,-70
2026-09-13 19:03:55.812,1789337035.812222,-67
2026-09-13 19:03:55.819,1789337035.8199143,-67
2026-09-13 19:03:55.827,1789337035.8276064,-70
2026-09-13 19:03:55.835,1789337035.8352988,-72
2026-09-13 19:03:55.842,1789337035.842991,-77
2026-09-13 19:03:55.850,1789337035.8506835,-82
2026-09-13 19:03:55.858,1789337035.8583758,-75
2026-09-13 19:03:55.866,1789337035.8660681,-63
2026-09-13 19:03:55.873,1789337035.8737605,-43
2026-09-13 19:03:55.881,1789337035.8814528,-19
2026-09-13 19:03:55.889,1789337035.889145,-2
2026-09-13 19:03:55.896,1789337035.8968372,-7
2026-09-13 19:03:55.904,1789337035.9045296,-24
2026-09-13 19:03:55.912,1789337035.912222,-43
2026-09-13 19:03:55.919,1789337035.9199142,-60
2026-09-13 19:03:55.927,1789337035.9276066,-72
2026-09-13 19:03:55.935,1789337035.935299,-77
2026-09-13 19:03:55.942,1789337035.9429913,-82
2026-09-13 19:03:55.950,1789337035.9506836,-82
2026-09-13 19:03:55.958,1789337035.9583757,-77
2026-09-13 19:03:55.966,1789337035.966068,-80
2026-09-13 19:03:55.973,1789337035.9737604,-84
2026-09-13 19:03:55.980,1789337035.9808602,-70
2026-09-13 19:03:55.988,1789337035.9885526,24
2026-09-13 19:03:55.996,1789337035.996245,215
2026-09-13 19:03:56.003,1789337036.0039372,482
2026-09-13 19:03:56.011,1789337036.0116296,732
2026-09-13 19:03:56.019,1789337036.0193217,516
2026-09-13 19:03:56.027,1789337036.027014,-179
2026-09-13 19:03:56.034,1789337036.0347064,-453
2026-09-13 19:03:56.042,1789337036.0423987,-181
2026-09-13 19:03:56.050,1789337036.050091,-101
2026-09-13 19:03:56.057,1789337036.0577834,-201
2026-09-13 19:03:56.065,1789337036.0654757,-164
2026-09-13 19:03:56.073,1789337036.073168,-126
2026-09-13 19:03:56.080,1789337036.0808601,-160
2026-09-13 19:03:56.088,1789337036.0885525,-150
2026-09-13 19:03:56.096,1789337036.0962448,-118
2026-09-13 19:03:56.103,1789337036.1039371,-121
2026-09-13 19:03:56.111,1789337036.1116295,-121
2026-09-13 19:03:56.119,1789337036.1193218,-104
2026-09-13 19:03:56.127,1789337036.1270142,-94
2026-09-13 19:03:56.134,1789337036.1347065,-92
2026-09-13 19:03:56.142,1789337036.1423986,-82
2026-09-13 19:03:56.150,1789337036.150091,-70
2026-09-13 19:03:56.157,1789337036.1577833,-63
2026-09-13 19:03:56.165,1789337036.1654756,-50
2026-09-13 19:03:56.173,1789337036.173168,-36
2026-09-13 19:03:56.180,1789337036.1808603,-26
2026-09-13 19:03:56.188,1789337036.1885526,-14
2026-09-13 19:03:56.196,1789337036.196245,-4
2026-09-13 19:03:56.203,1789337036.203937,2
2026-09-13 19:03:56.211,1789337036.2116294,4
2026-09-13 19:03:56.219,1789337036.2193217,4
2026-09-13 19:03:56.227,1789337036.227014,4
2026-09-13 19:03:56.234,1789337036.2347064,4
2026-09-13 19:03:56.242,1789337036.2423987,-2
2026-09-13 19:03:56.250,1789337036.250091,-19
2026-09-13 19:03:56.257,1789337036.2577834,-43
2026-09-13 19:03:56.265,1789337036.2654755,-70
2026-09-13 19:03:56.273,1789337036.2731678,-99
2026-09-13 19:03:56.280,1789337036.2808602,-121
2026-09-13 19:03:56.288,1789337036.2885525,-135
2026-09-13 19:03:56.296,1789337036.2962449,-145
2026-09-13 19:03:56.303,1789337036.3039372,-150
2026-09-13 19:03:56.311,1789337036.3116295,-147
2026-09-13 19:03:56.319,1789337036.3193219,-143
2026-09-13 19:03:56.327,1789337036.327014,-135
2026-09-13 19:03:56.334,1789337036.3347063,-130
2026-09-13 19:03:56.342,1789337036.3423986,-118
2026-09-13 19:03:56.350,1789337036.350091,-111
2026-09-13 19:03:56.357,1789337036.3577833,-109
2026-09-13 19:03:56.365,1789337036.3654757,-109
2026-09-13 19:03:56.373,1789337036.373168,-104
2026-09-13 19:03:56.380,1789337036.3808603,-101
2026-09-13 19:03:56.388,1789337036.3885524,-104
2026-09-13 19:03:56.396,1789337036.3962448,-104
2026-09-13 19:03:56.403,1789337036.403937,-104
2026-09-13 19:03:56.411,1789337036.4116294,-101
2026-09-13 19:03:56.419,1789337036.4193218,-101
2026-09-13 19:03:56.427,1789337036.427014,-99
2026-09-13 19:03:56.434,1789337036.4347064,-97
2026-09-13 19:03:56.442,1789337036.4423988,-99
2026-09-13 19:03:56.450,1789337036.450091,-101
2026-09-13 19:03:56.457,1789337036.4577832,-99
2026-09-13 19:03:56.465,1789337036.4654756,-97
2026-09-13 19:03:56.473,1789337036.473168,-97
2026-09-13 19:03:56.480,1789337036.4808602,-97
2026-09-13 19:03:56.488,1789337036.4885526,-97
2026-09-13 19:03:56.496,1789337036.496245,-99
2026-09-13 19:03:56.503,1789337036.5039372,-99
2026-09-13 19:03:56.511,1789337036.5116296,-92
2026-09-13 19:03:56.519,1789337036.5193217,-84
2026-09-13 19:03:56.527,1789337036.527014,-87
2026-09-13 19:03:56.534,1789337036.5347064,-87
2026-09-13 19:03:56.541,1789337036.5417762,-82
2026-09-13 19:03:56.549,1789337036.5494685,-84
2026-09-13 19:03:56.557,1789337036.5571609,-87
2026-09-13 19:03:56.564,1789337036.5648532,-77
2026-09-13 19:03:56.572,1789337036.5725455,-65
2026-09-13 19:03:56.580,1789337036.5802376,-55
2026-09-13 19:03:56.587,1789337036.58793,-29
2026-09-13 19:03:56.595,1789337036.5956223,0
2026-09-13 19:03:56.603,1789337036.6033146,9
2026-09-13 19:03:56.611,1789337036.611007,2
2026-09-13 19:03:56.618,1789337036.6186993,-14
2026-09-13 19:03:56.626,1789337036.6263916,-33
2026-09-13 19:03:56.634,1789337036.634084,-48
2026-09-13 19:03:56.641,1789337036.641776,-58
2026-09-13 19:03:56.649,1789337036.6494684,-60
2026-09-13 19:03:56.657,1789337036.6571608,-53
2026-09-13 19:03:56.664,1789337036.664853,-46
2026-09-13 19:03:56.672,1789337036.6725454,-43
2026-09-13 19:03:56.680,1789337036.6802378,-41
2026-09-13 19:03:56.687,1789337036.68793,-43
2026-09-13 19:03:56.695,1789337036.6956224,-4
2026-09-13 19:03:56.703,1789337036.7033145,143
2026-09-13 19:03:56.711,1789337036.7110069,383
2026-09-13 19:03:56.718,1789337036.7186992,671
2026-09-13 19:03:56.726,1789337036.7263916,754
2026-09-13 19:03:56.734,1789337036.734084,240
2026-09-13 19:03:56.741,1789337036.7417762,-349
2026-09-13 19:03:56.749,1789337036.7494686,-278
2026-09-13 19:03:56.757,1789337036.757161,-24
2026-09-13 19:03:56.764,1789337036.764853,-75
2026-09-13 19:03:56.772,1789337036.7725453,-113
2026-09-13 19:03:56.780,1789337036.7802377,-48
2026-09-13 19:03:56.787,1789337036.78793,-53
2026-09-13 19:03:56.795,1789337036.7956223,-72
2026-09-13 19:03:56.803,1789337036.8033147,-46
2026-09-13 19:03:56.811,1789337036.811007,-33
2026-09-13 19:03:56.818,1789337036.8186994,-38
2026-09-13 19:03:56.826,1789337036.8263915,-26
2026-09-13 19:03:56.834,1789337036.8340838,-14
2026-09-13 19:03:56.841,1789337036.8417761,-7
2026-09-13 19:03:56.849,1789337036.8494685,2
2026-09-13 19:03:56.857,1789337036.8571608,16
2026-09-13 19:03:56.864,1789337036.8648531,29
2026-09-13 19:03:56.872,1789337036.8725455,38
2026-09-13 19:03:56.880,1789337036.8802378,48
2026-09-13 19:03:56.887,1789337036.88793,60
2026-09-13 19:03:56.895,1789337036.8956223,70
2026-09-13 19:03:56.903,1789337036.9033146,77
2026-09-13 19:03:56.911,1789337036.911007,89
2026-09-13 19:03:56.918,1789337036.9186993,104
2026-09-13 19:03:56.926,1789337036.9263916,106
2026-09-13 19:03:56.934,1789337036.934084,99
2026-09-13 19:03:56.941,1789337036.9417763,94
2026-09-13 19:03:56.949,1789337036.9494684,89
2026-09-13 19:03:56.957,1789337036.9571607,77
2026-09-13 19:03:56.964,1789337036.964853,55
2026-09-13 19:03:56.972,1789337036.9725454,26
2026-09-13 19:03:56.980,1789337036.9802377,-9
2026-09-13 19:03:56.987,1789337036.98793,-41
2026-09-13 19:03:56.995,1789337036.9956224,-60
2026-09-13 19:03:57.003,1789337037.0033147,-80
2026-09-13 19:03:57.011,1789337037.0110068,-92
2026-09-13 19:03:57.018,1789337037.0186992,-99
2026-09-13 19:03:57.026,1789337037.0263915,-104
2026-09-13 19:03:57.034,1789337037.0340838,-104
2026-09-13 19:03:57.041,1789337037.0417762,-94
2026-09-13 19:03:57.049,1789337037.0494685,-82
2026-09-13 19:03:57.057,1789337037.0571609,-75
2026-09-13 19:03:57.064,1789337037.0648532,-72
2026-09-13 19:03:57.072,1789337037.0725455,-70
2026-09-13 19:03:57.080,1789337037.0802376,-70
2026-09-13 19:03:57.087,1789337037.08793,-72
2026-09-13 19:03:57.095,1789337037.0956223,-72
2026-09-13 19:03:57.102,1789337037.1027174,-72
2026-09-13 19:03:57.110,1789337037.1104097,-77
2026-09-13 19:03:57.118,1789337037.118102,-82
2026-09-13 19:03:57.125,1789337037.1257944,-80
2026-09-13 19:03:57.133,1789337037.1334867,-84
2026-09-13 19:03:57.141,1789337037.1411788,-87
2026-09-13 19:03:57.148,1789337037.1488712,-89
2026-09-13 19:03:57.156,1789337037.1565635,-97
2026-09-13 19:03:57.164,1789337037.1642559,-104
2026-09-13 19:03:57.171,1789337037.1719482,-106
2026-09-13 19:03:57.179,1789337037.1796405,-111
2026-09-13 19:03:57.187,1789337037.1873329,-113
2026-09-13 19:03:57.195,1789337037.1950252,-109
2026-09-13 19:03:57.202,1789337037.2027173,-113
2026-09-13 19:03:57.210,1789337037.2104096,-118
2026-09-13 19:03:57.218,1789337037.218102,-118
2026-09-13 19:03:57.225,1789337037.2257943,-116
2026-09-13 19:03:57.233,1789337037.2334867,-126
2026-09-13 19:03:57.241,1789337037.241179,-138
2026-09-13 19:03:57.248,1789337037.2488713,-140
2026-09-13 19:03:57.256,1789337037.2565637,-133
2026-09-13 19:03:57.264,1789337037.2642558,-128
2026-09-13 19:03:57.271,1789337037.271948,-113
2026-09-13 19:03:57.279,1789337037.2796404,-82
2026-09-13 19:03:57.287,1789337037.2873328,-67
2026-09-13 19:03:57.295,1789337037.295025,-70
2026-09-13 19:03:57.302,1789337037.3027174,-87
2026-09-13 19:03:57.310,1789337037.3104098,-113
2026-09-13 19:03:57.318,1789337037.3181021,-133
2026-09-13 19:03:57.325,1789337037.3257942,-135
2026-09-13 19:03:57.333,1789337037.3334866,-135
2026-09-13 19:03:57.341,1789337037.341179,-133
2026-09-13 19:03:57.348,1789337037.3488712,-138
2026-09-13 19:03:57.356,1789337037.3565636,-150
2026-09-13 19:03:57.364,1789337037.364256,-150
2026-09-13 19:03:57.371,1789337037.3719482,-145
2026-09-13 19:03:57.379,1789337037.3796406,-138
2026-09-13 19:03:57.387,1789337037.3873327,-55
2026-09-13 19:03:57.395,1789337037.395025,160
2026-09-13 19:03:57.402,1789337037.4027174,475
2026-09-13 19:03:57.410,1789337037.4104097,734
2026-09-13 19:03:57.418,1789337037.418102,487
2026-09-13 19:03:57.425,1789337037.4257944,-286
2026-09-13 19:03:57.433,1789337037.4334867,-611
2026-09-13 19:03:57.441,1789337037.441179,-278
2026-09-13 19:03:57.448,1789337037.4488711,-150
2026-09-13 19:03:57.456,1789337037.4565635,-259
2026-09-13 19:03:57.464,1789337037.4642558,-213
2026-09-13 19:03:57.471,1789337037.4719481,-169
2026-09-13 19:03:57.479,1789337037.4796405,-215
2026-09-13 19:03:57.487,1789337037.4873328,-215
2026-09-13 19:03:57.495,1789337037.4950252,-181
2026-09-13 19:03:57.502,1789337037.5027175,-174
2026-09-13 19:03:57.510,1789337037.5104096,-169
2026-09-13 19:03:57.518,1789337037.518102,-155
2026-09-13 19:03:57.525,1789337037.5257943,-143
2026-09-13 19:03:57.533,1789337037.5334866,-140
2026-09-13 19:03:57.541,1789337037.541179,-128
2026-09-13 19:03:57.548,1789337037.5488713,-113
2026-09-13 19:03:57.556,1789337037.5565636,-99
2026-09-13 19:03:57.564,1789337037.564256,-84
2026-09-13 19:03:57.571,1789337037.571948,-72
2026-09-13 19:03:57.579,1789337037.5796404,-58
2026-09-13 19:03:57.587,1789337037.5873327,-36
2026-09-13 19:03:57.595,1789337037.595025,-16
2026-09-13 19:03:57.602,1789337037.6027174,-2
2026-09-13 19:03:57.610,1789337037.6104097,9
2026-09-13 19:03:57.618,1789337037.618102,12
2026-09-13 19:03:57.625,1789337037.6257944,7
2026-09-13 19:03:57.633,1789337037.6334867,-2
2026-09-13 19:03:57.641,1789337037.6411788,-14
2026-09-13 19:03:57.648,1789337037.6488712,-38
2026-09-13 19:03:57.656,1789337037.6565635,-75
2026-09-13 19:03:57.663,1789337037.663638,-123
2026-09-13 19:03:57.671,1789337037.6713305,-172
2026-09-13 19:03:57.679,1789337037.6790228,-203
2026-09-13 19:03:57.686,1789337037.6867151,-223
2026-09-13 19:03:57.694,1789337037.6944075,-240
2026-09-13 19:03:57.702,1789337037.7020996,-252
2026-09-13 19:03:57.709,1789337037.709792,-259
2026-09-13 19:03:57.717,1789337037.7174842,-259
2026-09-13 19:03:57.725,1789337037.7251766,-252
2026-09-13 19:03:57.732,1789337037.732869,-247
2026-09-13 19:03:57.740,1789337037.7405612,-247
2026-09-13 19:03:57.748,1789337037.7482536,-235
2026-09-13 19:03:57.755,1789337037.755946,-227
2026-09-13 19:03:57.763,1789337037.763638,-223
2026-09-13 19:03:57.771,1789337037.7713304,-218
2026-09-13 19:03:57.779,1789337037.7790227,-215
2026-09-13 19:03:57.786,1789337037.786715,-218
2026-09-13 19:03:57.794,1789337037.7944074,-215
2026-09-13 19:03:57.802,1789337037.8020997,-220
2026-09-13 19:03:57.809,1789337037.809792,-220
2026-09-13 19:03:57.817,1789337037.8174844,-213
2026-09-13 19:03:57.825,1789337037.8251765,-213
2026-09-13 19:03:57.832,1789337037.8328688,-220
2026-09-13 19:03:57.840,1789337037.8405612,-220
2026-09-13 19:03:57.848,1789337037.8482535,-218
2026-09-13 19:03:57.855,1789337037.8559458,-225
2026-09-13 19:03:57.863,1789337037.8636382,-235
2026-09-13 19:03:57.871,1789337037.8713305,-235
2026-09-13 19:03:57.879,1789337037.8790228,-242
2026-09-13 19:03:57.886,1789337037.886715,-259
2026-09-13 19:03:57.894,1789337037.8944073,-254
2026-09-13 19:03:57.902,1789337037.9020996,-242
2026-09-13 19:03:57.909,1789337037.909792,-235
2026-09-13 19:03:57.917,1789337037.9174843,-213
2026-09-13 19:03:57.925,1789337037.9251766,-186
2026-09-13 19:03:57.932,1789337037.932869,-184
2026-09-13 19:03:57.940,1789337037.9405613,-194
2026-09-13 19:03:57.948,1789337037.9482534,-206
2026-09-13 19:03:57.955,1789337037.9559457,-235
2026-09-13 19:03:57.963,1789337037.963638,-257
2026-09-13 19:03:57.971,1789337037.9713304,-249
2026-09-13 19:03:57.979,1789337037.9790227,-240
2026-09-13 19:03:57.986,1789337037.986715,-242
2026-09-13 19:03:57.994,1789337037.9944074,-242
2026-09-13 19:03:58.002,1789337038.0020998,-232
2026-09-13 19:03:58.009,1789337038.0097919,-237
2026-09-13 19:03:58.017,1789337038.0174842,-247
2026-09-13 19:03:58.025,1789337038.0251765,-215
2026-09-13 19:03:58.032,1789337038.0328689,-63
2026-09-13 19:03:58.040,1789337038.0405612,240
2026-09-13 19:03:58.048,1789337038.0482535,594
2026-09-13 19:03:58.055,1789337038.0559459,652
2026-09-13 19:03:58.063,1789337038.0636382,63
2026-09-13 19:03:58.071,1789337038.0713303,-630
2026-09-13 19:03:58.079,1789337038.0790226,-574
2026-09-13 19:03:58.086,1789337038.086715,-240
2026-09-13 19:03:58.094,1789337038.0944073,-278
2026-09-13 19:03:58.102,1789337038.1020997,-344
2026-09-13 19:03:58.109,1789337038.109792,-254
2026-09-13 19:03:58.117,1789337038.1174843,-247
2026-09-13 19:03:58.125,1789337038.1251767,-288
2026-09-13 19:03:58.132,1789337038.1328688,-261
2026-09-13 19:03:58.140,1789337038.140561,-232
2026-09-13 19:03:58.148,1789337038.1482534,-247
2026-09-13 19:03:58.155,1789337038.1559458,-240
2026-09-13 19:03:58.163,1789337038.163638,-208
2026-09-13 19:03:58.171,1789337038.1713305,-189
2026-09-13 19:03:58.179,1789337038.1790228,-181
2026-09-13 19:03:58.186,1789337038.1867151,-179
2026-09-13 19:03:58.194,1789337038.1944075,-172
2026-09-13 19:03:58.202,1789337038.2020996,-150
2026-09-13 19:03:58.209,1789337038.209792,-126
2026-09-13 19:03:58.217,1789337038.2174842,-113
2026-09-13 19:03:58.224,1789337038.2245846,-92
2026-09-13 19:03:58.232,1789337038.232277,-60
2026-09-13 19:03:58.239,1789337038.2399693,-43
2026-09-13 19:03:58.247,1789337038.2476616,-36
2026-09-13 19:03:58.255,1789337038.255354,-24
2026-09-13 19:03:58.263,1789337038.263046,-19
2026-09-13 19:03:58.270,1789337038.2707384,-26
2026-09-13 19:03:58.278,1789337038.2784307,-38
2026-09-13 19:03:58.286,1789337038.286123,-60
2026-09-13 19:03:58.293,1789337038.2938154,-99
2026-09-13 19:03:58.301,1789337038.3015077,-150
2026-09-13 19:03:58.309,1789337038.3092,-203
2026-09-13 19:03:58.316,1789337038.3168924,-242
2026-09-13 19:03:58.324,1789337038.3245845,-269
2026-09-13 19:03:58.332,1789337038.3322768,-288
2026-09-13 19:03:58.339,1789337038.3399692,-293
2026-09-13 19:03:58.347,1789337038.3476615,-291
2026-09-13 19:03:58.355,1789337038.3553538,-298
2026-09-13 19:03:58.363,1789337038.3630462,-300
2026-09-13 19:03:58.370,1789337038.3707385,-286
2026-09-13 19:03:58.378,1789337038.3784308,-276
2026-09-13 19:03:58.386,1789337038.386123,-271
2026-09-13 19:03:58.393,1789337038.3938153,-247
2026-09-13 19:03:58.401,1789337038.4015076,-235
2026-09-13 19:03:58.409,1789337038.4092,-242
2026-09-13 19:03:58.416,1789337038.4168923,-240
2026-09-13 19:03:58.424,1789337038.4245846,-230
2026-09-13 19:03:58.432,1789337038.432277,-230
2026-09-13 19:03:58.439,1789337038.4399693,-220
2026-09-13 19:03:58.447,1789337038.4476614,-206
2026-09-13 19:03:58.455,1789337038.4553537,-206
2026-09-13 19:03:58.463,1789337038.463046,-223
2026-09-13 19:03:58.470,1789337038.4707384,-220
2026-09-13 19:03:58.478,1789337038.4784307,-210
2026-09-13 19:03:58.486,1789337038.486123,-225
2026-09-13 19:03:58.493,1789337038.4938154,-242
2026-09-13 19:03:58.501,1789337038.5015078,-235
2026-09-13 19:03:58.509,1789337038.5091999,-220
2026-09-13 19:03:58.516,1789337038.5168922,-210
2026-09-13 19:03:58.524,1789337038.5245845,-206
2026-09-13 19:03:58.532,1789337038.5322769,-196
2026-09-13 19:03:58.539,1789337038.5399692,-169
2026-09-13 19:03:58.547,1789337038.5476615,-150
2026-09-13 19:03:58.555,1789337038.5553539,-157
2026-09-13 19:03:58.563,1789337038.5630462,-177
2026-09-13 19:03:58.570,1789337038.5707383,-191
2026-09-13 19:03:58.578,1789337038.5784307,-198
2026-09-13 19:03:58.586,1789337038.586123,-201
2026-09-13 19:03:58.593,1789337038.5938153,-201
2026-09-13 19:03:58.601,1789337038.6015077,-206
2026-09-13 19:03:58.609,1789337038.6092,-206
2026-09-13 19:03:58.616,1789337038.6168923,-201
2026-09-13 19:03:58.624,1789337038.6245847,-198
2026-09-13 19:03:58.632,1789337038.6322768,-198
2026-09-13 19:03:58.639,1789337038.639969,-181
2026-09-13 19:03:58.647,1789337038.6476614,-80
2026-09-13 19:03:58.655,1789337038.6553538,191
2026-09-13 19:03:58.663,1789337038.6630461,552
2026-09-13 19:03:58.670,1789337038.6707385,705
2026-09-13 19:03:58.678,1789337038.6784308,269
2026-09-13 19:03:58.686,1789337038.6861231,-480
2026-09-13 19:03:58.693,1789337038.6938152,-606
2026-09-13 19:03:58.701,1789337038.7015076,-230
2026-09-13 19:03:58.709,1789337038.7092,-167
2026-09-13 19:03:58.716,1789337038.7168922,-276
2026-09-13 19:03:58.724,1789337038.7245846,-223
2026-09-13 19:03:58.732,1789337038.732277,-191
2026-09-13 19:03:58.739,1789337038.7399693,-225
2026-09-13 19:03:58.747,1789337038.7476616,-203
2026-09-13 19:03:58.755,1789337038.755354,-174
2026-09-13 19:03:58.763,1789337038.763046,-181
2026-09-13 19:03:58.770,1789337038.7707384,-184
2026-09-13 19:03:58.778,1789337038.7784307,-167
2026-09-13 19:03:58.785,1789337038.7855003,-143
2026-09-13 19:03:58.793,1789337038.7931926,-133
2026-09-13 19:03:58.800,1789337038.800885,-135
2026-09-13 19:03:58.808,1789337038.8085773,-113
2026-09-13 19:03:58.816,1789337038.8162696,-84
2026-09-13 19:03:58.823,1789337038.8239617,-70
2026-09-13 19:03:58.831,1789337038.831654,-63
2026-09-13 19:03:58.839,1789337038.8393464,-50
2026-09-13 19:03:58.847,1789337038.8470387,-24
2026-09-13 19:03:58.854,1789337038.854731,0
2026-09-13 19:03:58.862,1789337038.8624234,16
2026-09-13 19:03:58.870,1789337038.8701158,16
2026-09-13 19:03:58.877,1789337038.877808,9
2026-09-13 19:03:58.885,1789337038.8855002,9
2026-09-13 19:03:58.893,1789337038.8931925,9
2026-09-13 19:03:58.900,1789337038.9008849,-14
2026-09-13 19:03:58.908,1789337038.9085772,-65
2026-09-13 19:03:58.916,1789337038.9162695,-118
2026-09-13 19:03:58.923,1789337038.9239619,-150
2026-09-13 19:03:58.931,1789337038.9316542,-174
2026-09-13 19:03:58.939,1789337038.9393466,-208
2026-09-13 19:03:58.947,1789337038.9470387,-237
2026-09-13 19:03:58.954,1789337038.954731,-235
2026-09-13 19:03:58.962,1789337038.9624233,-230
2026-09-13 19:03:58.970,1789337038.9701157,-244
2026-09-13 19:03:58.977,1789337038.977808,-244
2026-09-13 19:03:58.985,1789337038.9855003,-235
2026-09-13 19:03:58.993,1789337038.9931927,-237
2026-09-13 19:03:59.000,1789337039.000885,-223
2026-09-13 19:03:59.008,1789337039.008577,-203
2026-09-13 19:03:59.016,1789337039.0162694,-208
2026-09-13 19:03:59.023,1789337039.0239618,-206
2026-09-13 19:03:59.031,1789337039.0316541,-186
2026-09-13 19:03:59.039,1789337039.0393465,-177
2026-09-13 19:03:59.047,1789337039.0470388,-181
2026-09-13 19:03:59.054,1789337039.0547311,-194
2026-09-13 19:03:59.062,1789337039.0624235,-189
2026-09-13 19:03:59.070,1789337039.0701156,-177
2026-09-13 19:03:59.077,1789337039.077808,-184
2026-09-13 19:03:59.085,1789337039.0855002,-196
2026-09-13 19:03:59.093,1789337039.0931926,-194
2026-09-13 19:03:59.100,1789337039.100885,-201
2026-09-13 19:03:59.108,1789337039.1085773,-213
2026-09-13 19:03:59.116,1789337039.1162696,-201
2026-09-13 19:03:59.123,1789337039.123962,-191
2026-09-13 19:03:59.131,1789337039.131654,-186
2026-09-13 19:03:59.139,1789337039.1393464,-169
2026-09-13 19:03:59.147,1789337039.1470387,-147
2026-09-13 19:03:59.154,1789337039.154731,-145
2026-09-13 19:03:59.162,1789337039.1624234,-155
2026-09-13 19:03:59.170,1789337039.1701157,-169
2026-09-13 19:03:59.177,1789337039.177808,-189
2026-09-13 19:03:59.185,1789337039.1855004,-203
2026-09-13 19:03:59.193,1789337039.1931925,-208
2026-09-13 19:03:59.200,1789337039.2008848,-208
2026-09-13 19:03:59.208,1789337039.2085772,-201
2026-09-13 19:03:59.216,1789337039.2162695,-194
2026-09-13 19:03:59.223,1789337039.2239618,-196
2026-09-13 19:03:59.231,1789337039.2316542,-201
2026-09-13 19:03:59.239,1789337039.2393465,-196
2026-09-13 19:03:59.247,1789337039.2470388,-162
2026-09-13 19:03:59.254,1789337039.254731,-14
2026-09-13 19:03:59.262,1789337039.2624233,286
2026-09-13 19:03:59.270,1789337039.2701156,630
2026-09-13 19:03:59.277,1789337039.277808,654
2026-09-13 19:03:59.285,1789337039.2855003,41
2026-09-13 19:03:59.293,1789337039.2931926,-577
2026-09-13 19:03:59.300,1789337039.300885,-451
2026-09-13 19:03:59.308,1789337039.3085773,-157
2026-09-13 19:03:59.316,1789337039.3162696,-237
2026-09-13 19:03:59.323,1789337039.3239617,-291
2026-09-13 19:03:59.331,1789337039.331654,-203
2026-09-13 19:03:59.339,1789337039.3393464,-210
2026-09-13 19:03:59.346,1789337039.3464212,-242
2026-09-13 19:03:59.354,1789337039.3541136,-208
2026-09-13 19:03:59.361,1789337039.361806,-194
2026-09-13 19:03:59.369,1789337039.3694983,-201
2026-09-13 19:03:59.377,1789337039.3771906,-186
2026-09-13 19:03:59.384,1789337039.3848827,-172
2026-09-13 19:03:59.392,1789337039.392575,-172
2026-09-13 19:03:59.400,1789337039.4002674,-162
2026-09-13 19:03:59.407,1789337039.4079597,-150
2026-09-13 19:03:59.415,1789337039.415652,-140
2026-09-13 19:03:59.423,1789337039.4233444,-126
2026-09-13 19:03:59.431,1789337039.4310367,-109
2026-09-13 19:03:59.438,1789337039.438729,-97
2026-09-13 19:03:59.446,1789337039.4464211,-82
2026-09-13 19:03:59.454,1789337039.4541135,-65
2026-09-13 19:03:59.461,1789337039.4618058,-53
2026-09-13 19:03:59.469,1789337039.4694982,-46
2026-09-13 19:03:59.477,1789337039.4771905,-50
2026-09-13 19:03:59.484,1789337039.4848828,-58
2026-09-13 19:03:59.492,1789337039.4925752,-60
2026-09-13 19:03:59.500,1789337039.5002675,-72
2026-09-13 19:03:59.507,1789337039.5079596,-92
2026-09-13 19:03:59.515,1789337039.515652,-123
2026-09-13 19:03:59.523,1789337039.5233443,-155
2026-09-13 19:03:59.531,1789337039.5310366,-184
2026-09-13 19:03:59.538,1789337039.538729,-208
2026-09-13 19:03:59.546,1789337039.5464213,-227
2026-09-13 19:03:59.554,1789337039.5541136,-232
2026-09-13 19:03:59.561,1789337039.561806,-235
2026-09-13 19:03:59.569,1789337039.569498,-235
2026-09-13 19:03:59.577,1789337039.5771904,-232
2026-09-13 19:03:59.584,1789337039.5848827,-227
2026-09-13 19:03:59.592,1789337039.592575,-223
2026-09-13 19:03:59.600,1789337039.6002674,-213
2026-09-13 19:03:59.607,1789337039.6079597,-203
2026-09-13 19:03:59.615,1789337039.615652,-196
2026-09-13 19:03:59.623,1789337039.6233444,-191
2026-09-13 19:03:59.631,1789337039.6310365,-186
2026-09-13 19:03:59.638,1789337039.6387289,-181
2026-09-13 19:03:59.646,1789337039.6464212,-177
2026-09-13 19:03:59.654,1789337039.6541135,-174
2026-09-13 19:03:59.661,1789337039.6618059,-177
2026-09-13 19:03:59.669,1789337039.6694982,-179
2026-09-13 19:03:59.677,1789337039.6771905,-177
2026-09-13 19:03:59.684,1789337039.6848829,-179
2026-09-13 19:03:59.692,1789337039.692575,-186
2026-09-13 19:03:59.700,1789337039.7002673,-196
2026-09-13 19:03:59.707,1789337039.7079597,-198
2026-09-13 19:03:59.715,1789337039.715652,-194
2026-09-13 19:03:59.723,1789337039.7233443,-189
2026-09-13 19:03:59.731,1789337039.7310367,-179
2026-09-13 19:03:59.738,1789337039.738729,-157
2026-09-13 19:03:59.746,1789337039.7464213,-140
2026-09-13 19:03:59.754,1789337039.7541134,-143
2026-09-13 19:03:59.761,1789337039.7618058,-150
2026-09-13 19:03:59.769,1789337039.769498,-164
2026-09-13 19:03:59.777,1789337039.7771904,-184
2026-09-13 19:03:59.784,1789337039.7848828,-191
2026-09-13 19:03:59.792,1789337039.7925751,-189
2026-09-13 19:03:59.800,1789337039.8002675,-189
2026-09-13 19:03:59.807,1789337039.8079598,-189
2026-09-13 19:03:59.815,1789337039.815652,-186
2026-09-13 19:03:59.823,1789337039.8233442,-184
2026-09-13 19:03:59.831,1789337039.8310366,-186
2026-09-13 19:03:59.838,1789337039.838729,-191
2026-09-13 19:03:59.846,1789337039.8464212,-157
2026-09-13 19:03:59.854,1789337039.8541136,7
2026-09-13 19:03:59.861,1789337039.861806,312
2026-09-13 19:03:59.869,1789337039.8694983,676
2026-09-13 19:03:59.877,1789337039.8771906,688
2026-09-13 19:03:59.884,1789337039.8848827,24
2026-09-13 19:03:59.892,1789337039.892575,-548
2026-09-13 19:03:59.900,1789337039.9002674,-368
2026-09-13 19:03:59.907,1789337039.9073622,-140
2026-09-13 19:03:59.915,1789337039.9150546,-264
2026-09-13 19:03:59.922,1789337039.922747,-295
2026-09-13 19:03:59.930,1789337039.9304392,-213
2026-09-13 19:03:59.938,1789337039.9381316,-230
2026-09-13 19:03:59.945,1789337039.9458237,-247
2026-09-13 19:03:59.953,1789337039.953516,-215
2026-09-13 19:03:59.961,1789337039.9612083,-208
2026-09-13 19:03:59.968,1789337039.9689007,-213
2026-09-13 19:03:59.976,1789337039.976593,-196
2026-09-13 19:03:59.984,1789337039.9842854,-184
2026-09-13 19:03:59.991,1789337039.9919777,-179
2026-09-13 19:03:59.999,1789337039.99967,-169
2026-09-13 19:04:00.007,1789337040.0073621,-157
2026-09-13 19:04:00.015,1789337040.0150545,-147
2026-09-13 19:04:00.022,1789337040.0227468,-135
2026-09-13 19:04:00.030,1789337040.0304391,-121
2026-09-13 19:04:00.038,1789337040.0381315,-109
2026-09-13 19:04:00.045,1789337040.0458238,-97
2026-09-13 19:04:00.053,1789337040.0535161,-87
2026-09-13 19:04:00.061,1789337040.0612085,-84
2026-09-13 19:04:00.068,1789337040.0689006,-82
2026-09-13 19:04:00.076,1789337040.076593,-84
2026-09-13 19:04:00.084,1789337040.0842853,-92
2026-09-13 19:04:00.091,1789337040.0919776,-101
2026-09-13 19:04:00.099,1789337040.09967,-109
2026-09-13 19:04:00.107,1789337040.1073623,-116
2026-09-13 19:04:00.115,1789337040.1150546,-135
2026-09-13 19:04:00.122,1789337040.122747,-160
2026-09-13 19:04:00.130,1789337040.130439,-179
2026-09-13 19:04:00.138,1789337040.1381314,-191
2026-09-13 19:04:00.145,1789337040.1458237,-201
2026-09-13 19:04:00.153,1789337040.153516,-203
2026-09-13 19:04:00.161,1789337040.1612084,-201
2026-09-13 19:04:00.168,1789337040.1689007,-201
2026-09-13 19:04:00.176,1789337040.176593,-196
2026-09-13 19:04:00.184,1789337040.1842854,-189
2026-09-13 19:04:00.191,1789337040.1919775,-179
2026-09-13 19:04:00.199,1789337040.1996698,-169
2026-09-13 19:04:00.207,1789337040.2073622,-164
2026-09-13 19:04:00.215,1789337040.2150545,-162
2026-09-13 19:04:00.222,1789337040.2227468,-155
2026-09-13 19:04:00.230,1789337040.2304392,-150
2026-09-13 19:04:00.238,1789337040.2381315,-150
2026-09-13 19:04:00.245,1789337040.2458239,-150
2026-09-13 19:04:00.253,1789337040.253516,-145
2026-09-13 19:04:00.261,1789337040.2612083,-145
2026-09-13 19:04:00.268,1789337040.2689006,-150
2026-09-13 19:04:00.276,1789337040.276593,-150
2026-09-13 19:04:00.284,1789337040.2842853,-150
2026-09-13 19:04:00.291,1789337040.2919776,-147
2026-09-13 19:04:00.299,1789337040.29967,-150
2026-09-13 19:04:00.307,1789337040.3073623,-160
2026-09-13 19:04:00.315,1789337040.3150544,-169
2026-09-13 19:04:00.322,1789337040.3227468,-169
2026-09-13 19:04:00.330,1789337040.330439,-160
2026-09-13 19:04:00.338,1789337040.3381314,-152
2026-09-13 19:04:00.345,1789337040.3458238,-135
2026-09-13 19:04:00.353,1789337040.353516,-111
2026-09-13 19:04:00.361,1789337040.3612084,-99
2026-09-13 19:04:00.368,1789337040.3689008,-104
2026-09-13 19:04:00.376,1789337040.3765929,-118
2026-09-13 19:04:00.384,1789337040.3842852,-135
2026-09-13 19:04:00.391,1789337040.3919775,-150
2026-09-13 19:04:00.399,1789337040.39967,-155
2026-09-13 19:04:00.407,1789337040.4073622,-155
2026-09-13 19:04:00.415,1789337040.4150546,-155
2026-09-13 19:04:00.422,1789337040.422747,-150
2026-09-13 19:04:00.430,1789337040.4304392,-145
2026-09-13 19:04:00.438,1789337040.4381316,-145
2026-09-13 19:04:00.445,1789337040.4458237,-152
2026-09-13 19:04:00.453,1789337040.453516,-138
2026-09-13 19:04:00.461,1789337040.4612083,-33
2026-09-13 19:04:00.468,1789337040.4683034,206
2026-09-13 19:04:00.475,1789337040.4759958,569
2026-09-13 19:04:00.483,1789337040.483688,875
2026-09-13 19:04:00.491,1789337040.4913805,557
2026-09-13 19:04:00.499,1789337040.4990728,-269
2026-09-13 19:04:00.506,1789337040.506765,-514
2026-09-13 19:04:00.514,1789337040.5144572,-177
2026-09-13 19:04:00.522,1789337040.5221496,-143
2026-09-13 19:04:00.529,1789337040.529842,-286
2026-09-13 19:04:00.537,1789337040.5375342,-225
2026-09-13 19:04:00.545,1789337040.5452266,-179
2026-09-13 19:04:00.552,1789337040.552919,-218
2026-09-13 19:04:00.560,1789337040.5606112,-201
2026-09-13 19:04:00.568,1789337040.5683033,-169
2026-09-13 19:04:00.575,1789337040.5759957,-174
2026-09-13 19:04:00.583,1789337040.583688,-167
2026-09-13 19:04:00.591,1789337040.5913804,-145
2026-09-13 19:04:00.599,1789337040.5990727,-138
2026-09-13 19:04:00.606,1789337040.606765,-133
2026-09-13 19:04:00.614,1789337040.6144574,-123
2026-09-13 19:04:00.622,1789337040.6221497,-113
2026-09-13 19:04:00.629,1789337040.6298418,-101
2026-09-13 19:04:00.637,1789337040.6375341,-92
2026-09-13 19:04:00.645,1789337040.6452265,-82
2026-09-13 19:04:00.652,1789337040.6529188,-70
2026-09-13 19:04:00.660,1789337040.6606112,-60
2026-09-13 19:04:00.668,1789337040.6683035,-55
2026-09-13 19:04:00.675,1789337040.6759958,-55
2026-09-13 19:04:00.683,1789337040.6836882,-55
2026-09-13 19:04:00.691,1789337040.6913803,-60
2026-09-13 19:04:00.699,1789337040.6990726,-67
2026-09-13 19:04:00.706,1789337040.706765,-72
2026-09-13 19:04:00.714,1789337040.7144573,-80
2026-09-13 19:04:00.722,1789337040.7221496,-97
2026-09-13 19:04:00.729,1789337040.729842,-116
2026-09-13 19:04:00.737,1789337040.7375343,-133
2026-09-13 19:04:00.745,1789337040.7452266,-147
2026-09-13 19:04:00.752,1789337040.7529187,-155
2026-09-13 19:04:00.760,1789337040.760611,-162
2026-09-13 19:04:00.768,1789337040.7683034,-167
2026-09-13 19:04:00.775,1789337040.7759957,-167
2026-09-13 19:04:00.783,1789337040.783688,-162
2026-09-13 19:04:00.791,1789337040.7913804,-157
2026-09-13 19:04:00.799,1789337040.7990727,-147
2026-09-13 19:04:00.806,1789337040.806765,-138
2026-09-13 19:04:00.814,1789337040.8144572,-133
2026-09-13 19:04:00.822,1789337040.8221495,-126
2026-09-13 19:04:00.829,1789337040.8298419,-118
2026-09-13 19:04:00.837,1789337040.8375342,-116
2026-09-13 19:04:00.845,1789337040.8452265,-113
2026-09-13 19:04:00.852,1789337040.8529189,-111
2026-09-13 19:04:00.860,1789337040.8606112,-111
2026-09-13 19:04:00.868,1789337040.8683035,-109
2026-09-13 19:04:00.875,1789337040.8759956,-106
2026-09-13 19:04:00.883,1789337040.883688,-106
2026-09-13 19:04:00.891,1789337040.8913803,-106
2026-09-13 19:04:00.899,1789337040.8990726,-109
2026-09-13 19:04:00.906,1789337040.906765,-111
2026-09-13 19:04:00.914,1789337040.9144573,-111
2026-09-13 19:04:00.922,1789337040.9221497,-109
2026-09-13 19:04:00.929,1789337040.929842,-111
2026-09-13 19:04:00.937,1789337040.937534,-111
2026-09-13 19:04:00.945,1789337040.9452264,-109
2026-09-13 19:04:00.952,1789337040.9529188,-116
2026-09-13 19:04:00.960,1789337040.960611,-126
2026-09-13 19:04:00.968,1789337040.9683034,-126
2026-09-13 19:04:00.975,1789337040.9759958,-116
2026-09-13 19:04:00.983,1789337040.983688,-109
2026-09-13 19:04:00.991,1789337040.9913805,-99
2026-09-13 19:04:00.999,1789337040.9990728,-72
2026-09-13 19:04:01.006,1789337041.006765,-48
2026-09-13 19:04:01.014,1789337041.0144572,-53
2026-09-13 19:04:01.022,1789337041.0221496,-70
2026-09-13 19:04:01.029,1789337041.0292244,-87
2026-09-13 19:04:01.036,1789337041.0369167,-104
2026-09-13 19:04:01.044,1789337041.044609,-111
2026-09-13 19:04:01.052,1789337041.0523014,-109
2026-09-13 19:04:01.059,1789337041.0599937,-111
2026-09-13 19:04:01.067,1789337041.0676858,-111
2026-09-13 19:04:01.075,1789337041.0753782,-106
2026-09-13 19:04:01.083,1789337041.0830705,-106
2026-09-13 19:04:01.090,1789337041.0907629,-111
2026-09-13 19:04:01.098,1789337041.0984552,-92
2026-09-13 19:04:01.106,1789337041.1061475,14
2026-09-13 19:04:01.113,1789337041.1138399,235
2026-09-13 19:04:01.121,1789337041.1215322,562
2026-09-13 19:04:01.129,1789337041.1292243,858
2026-09-13 19:04:01.136,1789337041.1369166,591
2026-09-13 19:04:01.144,1789337041.144609,-198
2026-09-13 19:04:01.152,1789337041.1523013,-475
2026-09-13 19:04:01.159,1789337041.1599936,-160
2026-09-13 19:04:01.167,1789337041.167686,-106
2026-09-13 19:04:01.175,1789337041.1753783,-237
2026-09-13 19:04:01.183,1789337041.1830707,-184
2026-09-13 19:04:01.190,1789337041.1907628,-140
2026-09-13 19:04:01.198,1789337041.198455,-181
2026-09-13 19:04:01.206,1789337041.2061474,-169
2026-09-13 19:04:01.213,1789337041.2138398,-138
2026-09-13 19:04:01.221,1789337041.221532,-143
2026-09-13 19:04:01.229,1789337041.2292244,-140
2026-09-13 19:04:01.236,1789337041.2369168,-121
2026-09-13 19:04:01.244,1789337041.244609,-113
2026-09-13 19:04:01.252,1789337041.2523012,-111
2026-09-13 19:04:01.259,1789337041.2599936,-99
2026-09-13 19:04:01.267,1789337041.267686,-89
2026-09-13 19:04:01.275,1789337041.2753782,-80
2026-09-13 19:04:01.283,1789337041.2830706,-70
2026-09-13 19:04:01.290,1789337041.290763,-60
2026-09-13 19:04:01.298,1789337041.2984552,-53
2026-09-13 19:04:01.306,1789337041.3061476,-48
2026-09-13 19:04:01.313,1789337041.3138397,-43
2026-09-13 19:04:01.321,1789337041.321532,-43
2026-09-13 19:04:01.329,1789337041.3292243,-41
2026-09-13 19:04:01.336,1789337041.3369167,-41
2026-09-13 19:04:01.344,1789337041.344609,-43
2026-09-13 19:04:01.352,1789337041.3523014,-53
2026-09-13 19:04:01.359,1789337041.3599937,-58
2026-09-13 19:04:01.367,1789337041.367686,-65
2026-09-13 19:04:01.375,1789337041.3753781,-82
2026-09-13 19:04:01.383,1789337041.3830705,-101
2026-09-13 19:04:01.390,1789337041.3907628,-123
2026-09-13 19:04:01.398,1789337041.3984551,-138
2026-09-13 19:04:01.406,1789337041.4061475,-145
2026-09-13 19:04:01.413,1789337041.4138398,-155
2026-09-13 19:04:01.421,1789337041.4215322,-157
2026-09-13 19:04:01.429,1789337041.4292245,-155
2026-09-13 19:04:01.436,1789337041.4369166,-150
2026-09-13 19:04:01.444,1789337041.444609,-145
2026-09-13 19:04:01.452,1789337041.4523013,-133
2026-09-13 19:04:01.459,1789337041.4599936,-126
2026-09-13 19:04:01.467,1789337041.467686,-126
2026-09-13 19:04:01.475,1789337041.4753783,-118
2026-09-13 19:04:01.483,1789337041.4830706,-113
2026-09-13 19:04:01.490,1789337041.490763,-111
2026-09-13 19:04:01.498,1789337041.498455,-106
2026-09-13 19:04:01.506,1789337041.5061474,-104
2026-09-13 19:04:01.513,1789337041.5138397,-104
2026-09-13 19:04:01.521,1789337041.521532,-101
2026-09-13 19:04:01.529,1789337041.5292244,-104
2026-09-13 19:04:01.536,1789337041.5369167,-106
2026-09-13 19:04:01.544,1789337041.544609,-104
2026-09-13 19:04:01.552,1789337041.5523014,-101
2026-09-13 19:04:01.559,1789337041.5599937,-104
2026-09-13 19:04:01.567,1789337041.5676858,-109
2026-09-13 19:04:01.575,1789337041.5753782,-111
2026-09-13 19:04:01.583,1789337041.5830705,-111
2026-09-13 19:04:01.590,1789337041.5901554,-109
2026-09-13 19:04:01.597,1789337041.5978477,-109
2026-09-13 19:04:01.605,1789337041.60554,-113
2026-09-13 19:04:01.613,1789337041.6132324,-113
2026-09-13 19:04:01.620,1789337041.6209247,-111
2026-09-13 19:04:01.628,1789337041.6286168,-118
2026-09-13 19:04:01.636,1789337041.6363091,-128
2026-09-13 19:04:01.644,1789337041.6440015,-130
2026-09-13 19:04:01.651,1789337041.6516938,-118
2026-09-13 19:04:01.659,1789337041.6593862,-111
2026-09-13 19:04:01.667,1789337041.6670785,-104
2026-09-13 19:04:01.674,1789337041.6747708,-77
2026-09-13 19:04:01.682,1789337041.6824632,-55
2026-09-13 19:04:01.690,1789337041.6901553,-58
2026-09-13 19:04:01.697,1789337041.6978476,-75
2026-09-13 19:04:01.705,1789337041.70554,-94
2026-09-13 19:04:01.713,1789337041.7132323,-113
2026-09-13 19:04:01.720,1789337041.7209246,-126
2026-09-13 19:04:01.728,1789337041.728617,-128
2026-09-13 19:04:01.736,1789337041.7363093,-126
2026-09-13 19:04:01.744,1789337041.7440016,-118
2026-09-13 19:04:01.751,1789337041.7516937,-118
2026-09-13 19:04:01.759,1789337041.759386,-121
2026-09-13 19:04:01.767,1789337041.7670784,-126
2026-09-13 19:04:01.774,1789337041.7747707,-109
2026-09-13 19:04:01.782,1789337041.782463,-12
2026-09-13 19:04:01.790,1789337041.7901554,179
2026-09-13 19:04:01.797,1789337041.7978477,451
2026-09-13 19:04:01.805,1789337041.80554,696
2026-09-13 19:04:01.813,1789337041.8132322,458
2026-09-13 19:04:01.820,1789337041.8209245,-218
2026-09-13 19:04:01.828,1789337041.8286169,-443
2026-09-13 19:04:01.836,1789337041.8363092,-181
2026-09-13 19:04:01.844,1789337041.8440015,-135
2026-09-13 19:04:01.851,1789337041.8516939,-230
2026-09-13 19:04:01.859,1789337041.8593862,-189
2026-09-13 19:04:01.867,1789337041.8670785,-162
2026-09-13 19:04:01.874,1789337041.8747706,-194
2026-09-13 19:04:01.882,1789337041.882463,-181
2026-09-13 19:04:01.890,1789337041.8901553,-157
2026-09-13 19:04:01.897,1789337041.8978477,-162
2026-09-13 19:04:01.905,1789337041.90554,-155
2026-09-13 19:04:01.913,1789337041.9132323,-140
2026-09-13 19:04:01.920,1789337041.9209247,-133
2026-09-13 19:04:01.928,1789337041.928617,-123
2026-09-13 19:04:01.936,1789337041.936309,-121
2026-09-13 19:04:01.944,1789337041.9440014,-116
2026-09-13 19:04:01.951,1789337041.9516938,-101
2026-09-13 19:04:01.959,1789337041.959386,-89
2026-09-13 19:04:01.967,1789337041.9670784,-87
2026-09-13 19:04:01.974,1789337041.9747708,-75
2026-09-13 19:04:01.982,1789337041.9824631,-63
2026-09-13 19:04:01.990,1789337041.9901555,-55
2026-09-13 19:04:01.997,1789337041.9978476,-50
2026-09-13 19:04:02.005,1789337042.00554,-50
2026-09-13 19:04:02.013,1789337042.0132322,-53
2026-09-13 19:04:02.020,1789337042.0209246,-55
2026-09-13 19:04:02.028,1789337042.028617,-53
2026-09-13 19:04:02.036,1789337042.0363092,-58
2026-09-13 19:04:02.044,1789337042.0440016,-75
2026-09-13 19:04:02.051,1789337042.051694,-92
2026-09-13 19:04:02.059,1789337042.059386,-121
2026-09-13 19:04:02.067,1789337042.0670784,-152
2026-09-13 19:04:02.074,1789337042.0747707,-169
2026-09-13 19:04:02.082,1789337042.082463,-179
2026-09-13 19:04:02.090,1789337042.0901554,-189
2026-09-13 19:04:02.097,1789337042.0978477,-196
2026-09-13 19:04:02.105,1789337042.10554,-196
2026-09-13 19:04:02.113,1789337042.1132324,-194
2026-09-13 19:04:02.120,1789337042.1209247,-191
2026-09-13 19:04:02.128,1789337042.1286168,-179
2026-09-13 19:04:02.136,1789337042.1363091,-169
2026-09-13 19:04:02.144,1789337042.1440015,-167
2026-09-13 19:04:02.151,1789337042.1510863,-164
2026-09-13 19:04:02.158,1789337042.1587787,-160
2026-09-13 19:04:02.166,1789337042.166471,-155
2026-09-13 19:04:02.174,1789337042.1741633,-152
2026-09-13 19:04:02.181,1789337042.1818557,-150
2026-09-13 19:04:02.189,1789337042.1895478,-150
2026-09-13 19:04:02.197,1789337042.19724,-152
2026-09-13 19:04:02.204,1789337042.2049325,-152
2026-09-13 19:04:02.212,1789337042.2126248,-152
2026-09-13 19:04:02.220,1789337042.2203171,-150
2026-09-13 19:04:02.228,1789337042.2280095,-152
2026-09-13 19:04:02.235,1789337042.2357018,-152
2026-09-13 19:04:02.243,1789337042.2433941,-155
2026-09-13 19:04:02.251,1789337042.2510862,-162
2026-09-13 19:04:02.258,1789337042.2587786,-162
2026-09-13 19:04:02.266,1789337042.266471,-157
2026-09-13 19:04:02.274,1789337042.2741632,-157
2026-09-13 19:04:02.281,1789337042.2818556,-160
2026-09-13 19:04:02.289,1789337042.289548,-162
2026-09-13 19:04:02.297,1789337042.2972403,-160
2026-09-13 19:04:02.304,1789337042.3049326,-160
2026-09-13 19:04:02.312,1789337042.3126247,-162
2026-09-13 19:04:02.320,1789337042.320317,-167
2026-09-13 19:04:02.328,1789337042.3280094,-172
2026-09-13 19:04:02.335,1789337042.3357017,-164
2026-09-13 19:04:02.343,1789337042.343394,-150
2026-09-13 19:04:02.351,1789337042.3510864,-135
2026-09-13 19:04:02.358,1789337042.3587787,-111
2026-09-13 19:04:02.366,1789337042.366471,-87
2026-09-13 19:04:02.374,1789337042.3741632,-89
2026-09-13 19:04:02.381,1789337042.3818555,-109
2026-09-13 19:04:02.389,1789337042.3895478,-126
2026-09-13 19:04:02.397,1789337042.3972402,-145
2026-09-13 19:04:02.404,1789337042.4049325,-162
2026-09-13 19:04:02.412,1789337042.4126248,-164
2026-09-13 19:04:02.420,1789337042.4203172,-162
2026-09-13 19:04:02.428,1789337042.4280095,-157
2026-09-13 19:04:02.435,1789337042.4357016,-155
2026-09-13 19:04:02.443,1789337042.443394,-155
2026-09-13 19:04:02.451,1789337042.4510863,-157
2026-09-13 19:04:02.458,1789337042.4587786,-155
2026-09-13 19:04:02.466,1789337042.466471,-94
2026-09-13 19:04:02.474,1789337042.4741633,60
2026-09-13 19:04:02.481,1789337042.4818556,288
2026-09-13 19:04:02.489,1789337042.489548,550
2026-09-13 19:04:02.497,1789337042.49724,502
2026-09-13 19:04:02.504,1789337042.5049324,-75
2026-09-13 19:04:02.512,1789337042.5126247,-472
2026-09-13 19:04:02.520,1789337042.520317,-291
2026-09-13 19:04:02.528,1789337042.5280094,-138
2026-09-13 19:04:02.535,1789337042.5357018,-213
2026-09-13 19:04:02.543,1789337042.543394,-213
2026-09-13 19:04:02.551,1789337042.5510864,-167
2026-09-13 19:04:02.558,1789337042.5587785,-181
2026-09-13 19:04:02.566,1789337042.5664709,-186
2026-09-13 19:04:02.574,1789337042.5741632,-169
2026-09-13 19:04:02.581,1789337042.5818555,-164
2026-09-13 19:04:02.589,1789337042.5895479,-155
2026-09-13 19:04:02.597,1789337042.5972402,-143
2026-09-13 19:04:02.604,1789337042.6049325,-135
2026-09-13 19:04:02.612,1789337042.612625,-126
2026-09-13 19:04:02.620,1789337042.620317,-113
2026-09-13 19:04:02.628,1789337042.6280093,-106
2026-09-13 19:04:02.635,1789337042.6357017,-99
2026-09-13 19:04:02.643,1789337042.643394,-87
2026-09-13 19:04:02.651,1789337042.6510863,-75
2026-09-13 19:04:02.658,1789337042.6587787,-63
2026-09-13 19:04:02.666,1789337042.666471,-48
2026-09-13 19:04:02.674,1789337042.6741633,-36
2026-09-13 19:04:02.681,1789337042.6818557,-26
2026-09-13 19:04:02.689,1789337042.6895478,-24
2026-09-13 19:04:02.697,1789337042.69724,-24
2026-09-13 19:04:02.704,1789337042.7049325,-19
2026-09-13 19:04:02.712,1789337042.712002,-19
2026-09-13 19:04:02.719,1789337042.7196944,-24
2026-09-13 19:04:02.727,1789337042.7273867,-31
2026-09-13 19:04:02.735,1789337042.735079,-50
2026-09-13 19:04:02.742,1789337042.7427714,-82
2026-09-13 19:04:02.750,1789337042.7504635,-111
2026-09-13 19:04:02.758,1789337042.7581558,-130
2026-09-13 19:04:02.765,1789337042.7658482,-150
2026-09-13 19:04:02.773,1789337042.7735405,-162
2026-09-13 19:04:02.781,1789337042.7812328,-167
2026-09-13 19:04:02.788,1789337042.7889252,-172
2026-09-13 19:04:02.796,1789337042.7966175,-174
2026-09-13 19:04:02.804,1789337042.8043098,-162
2026-09-13 19:04:02.812,1789337042.812002,-150
2026-09-13 19:04:02.819,1789337042.8196943,-145
2026-09-13 19:04:02.827,1789337042.8273866,-145
2026-09-13 19:04:02.835,1789337042.835079,-145
2026-09-13 19:04:02.842,1789337042.8427713,-143
2026-09-13 19:04:02.850,1789337042.8504636,-140
2026-09-13 19:04:02.858,1789337042.858156,-140
2026-09-13 19:04:02.865,1789337042.8658483,-135
2026-09-13 19:04:02.873,1789337042.8735404,-133
2026-09-13 19:04:02.881,1789337042.8812327,-133
2026-09-13 19:04:02.888,1789337042.888925,-130
2026-09-13 19:04:02.896,1789337042.8966174,-123
2026-09-13 19:04:02.904,1789337042.9043097,-123
2026-09-13 19:04:02.912,1789337042.912002,-126
2026-09-13 19:04:02.919,1789337042.9196944,-128
2026-09-13 19:04:02.927,1789337042.9273868,-128
2026-09-13 19:04:02.935,1789337042.9350789,-130
2026-09-13 19:04:02.942,1789337042.9427712,-128
2026-09-13 19:04:02.950,1789337042.9504635,-128
2026-09-13 19:04:02.958,1789337042.9581559,-130
2026-09-13 19:04:02.965,1789337042.9658482,-128
2026-09-13 19:04:02.973,1789337042.9735405,-126
2026-09-13 19:04:02.981,1789337042.981233,-123
2026-09-13 19:04:02.988,1789337042.9889252,-128
2026-09-13 19:04:02.996,1789337042.9966173,-140
2026-09-13 19:04:03.004,1789337043.0043097,-145
2026-09-13 19:04:03.012,1789337043.012002,-130
2026-09-13 19:04:03.019,1789337043.0196943,-118
2026-09-13 19:04:03.027,1789337043.0273867,-104
2026-09-13 19:04:03.035,1789337043.035079,-77
2026-09-13 19:04:03.042,1789337043.0427713,-55
2026-09-13 19:04:03.050,1789337043.0504637,-63
2026-09-13 19:04:03.058,1789337043.0581558,-82
2026-09-13 19:04:03.065,1789337043.065848,-97
2026-09-13 19:04:03.073,1789337043.0735404,-116
2026-09-13 19:04:03.081,1789337043.0812328,-126
2026-09-13 19:04:03.088,1789337043.0889251,-128
2026-09-13 19:04:03.096,1789337043.0966175,-128
2026-09-13 19:04:03.104,1789337043.1043098,-128
2026-09-13 19:04:03.112,1789337043.1120021,-126
2026-09-13 19:04:03.119,1789337043.1196942,-123
2026-09-13 19:04:03.127,1789337043.1273866,-128
2026-09-13 19:04:03.135,1789337043.135079,-126
2026-09-13 19:04:03.142,1789337043.1427712,-43
2026-09-13 19:04:03.150,1789337043.1504636,152
2026-09-13 19:04:03.158,1789337043.158156,431
2026-09-13 19:04:03.165,1789337043.1658483,662
2026-09-13 19:04:03.173,1789337043.1735406,409
2026-09-13 19:04:03.181,1789337043.1812327,-291
2026-09-13 19:04:03.188,1789337043.188925,-516
2026-09-13 19:04:03.196,1789337043.1966174,-198
2026-09-13 19:04:03.204,1789337043.2043097,-121
2026-09-13 19:04:03.212,1789337043.212002,-223
2026-09-13 19:04:03.219,1789337043.2196944,-177
2026-09-13 19:04:03.227,1789337043.2273867,-143
2026-09-13 19:04:03.235,1789337043.235079,-179
2026-09-13 19:04:03.242,1789337043.2427714,-169
2026-09-13 19:04:03.250,1789337043.2504635,-140
2026-09-13 19:04:03.258,1789337043.2581558,-140
2026-09-13 19:04:03.265,1789337043.2658482,-138
2026-09-13 19:04:03.272,1789337043.2729483,-123
2026-09-13 19:04:03.280,1789337043.2806406,-121
2026-09-13 19:04:03.288,1789337043.288333,-118
2026-09-13 19:04:03.296,1789337043.2960253,-104
2026-09-13 19:04:03.303,1789337043.3037176,-89
2026-09-13 19:04:03.311,1789337043.3114097,-77
2026-09-13 19:04:03.319,1789337043.319102,-67
2026-09-13 19:04:03.326,1789337043.3267944,-60
2026-09-13 19:04:03.334,1789337043.3344867,-48
2026-09-13 19:04:03.342,1789337043.342179,-29
2026-09-13 19:04:03.349,1789337043.3498714,-12
2026-09-13 19:04:03.357,1789337043.3575637,-4
2026-09-13 19:04:03.365,1789337043.365256,-4
2026-09-13 19:04:03.372,1789337043.3729482,-4
2026-09-13 19:04:03.380,1789337043.3806405,0
2026-09-13 19:04:03.388,1789337043.3883328,-2
2026-09-13 19:04:03.396,1789337043.3960252,-16
2026-09-13 19:04:03.403,1789337043.4037175,-38
2026-09-13 19:04:03.411,1789337043.4114099,-65
2026-09-13 19:04:03.419,1789337043.4191022,-101
2026-09-13 19:04:03.426,1789337043.4267945,-140
2026-09-13 19:04:03.434,1789337043.4344866,-172
2026-09-13 19:04:03.442,1789337043.442179,-191
2026-09-13 19:04:03.449,1789337043.4498713,-201
2026-09-13 19:04:03.457,1789337043.4575636,-206
2026-09-13 19:04:03.465,1789337043.465256,-206
2026-09-13 19:04:03.472,1789337043.4729483,-198
2026-09-13 19:04:03.480,1789337043.4806406,-194
2026-09-13 19:04:03.488,1789337043.488333,-194
2026-09-13 19:04:03.496,1789337043.496025,-189
2026-09-13 19:04:03.503,1789337043.5037174,-181
2026-09-13 19:04:03.511,1789337043.5114098,-174
2026-09-13 19:04:03.519,1789337043.519102,-174
2026-09-13 19:04:03.526,1789337043.5267944,-172
2026-09-13 19:04:03.534,1789337043.5344868,-169
2026-09-13 19:04:03.542,1789337043.542179,-169
2026-09-13 19:04:03.549,1789337043.5498714,-172
2026-09-13 19:04:03.557,1789337043.5575635,-172
2026-09-13 19:04:03.565,1789337043.5652559,-167
2026-09-13 19:04:03.572,1789337043.5729482,-164
2026-09-13 19:04:03.580,1789337043.5806406,-169
2026-09-13 19:04:03.588,1789337043.588333,-172
2026-09-13 19:04:03.596,1789337043.5960252,-174
2026-09-13 19:04:03.603,1789337043.6037176,-179
2026-09-13 19:04:03.611,1789337043.61141,-179
2026-09-13 19:04:03.619,1789337043.619102,-174
2026-09-13 19:04:03.626,1789337043.6267943,-169
2026-09-13 19:04:03.634,1789337043.6344867,-174
2026-09-13 19:04:03.642,1789337043.642179,-186
2026-09-13 19:04:03.649,1789337043.6498713,-194
2026-09-13 19:04:03.657,1789337043.6575637,-189
2026-09-13 19:04:03.665,1789337043.665256,-172
2026-09-13 19:04:03.672,1789337043.6729484,-152
2026-09-13 19:04:03.680,1789337043.6806405,-133
2026-09-13 19:04:03.688,1789337043.6883328,-118
2026-09-13 19:04:03.696,1789337043.6960251,-113
2026-09-13 19:04:03.703,1789337043.7037175,-128
2026-09-13 19:04:03.711,1789337043.7114098,-150
2026-09-13 19:04:03.719,1789337043.7191021,-164
2026-09-13 19:04:03.726,1789337043.7267945,-174
2026-09-13 19:04:03.734,1789337043.7344868,-179
2026-09-13 19:04:03.742,1789337043.742179,-177
2026-09-13 19:04:03.749,1789337043.7498713,-167
2026-09-13 19:04:03.757,1789337043.7575636,-167
2026-09-13 19:04:03.765,1789337043.765256,-174
2026-09-13 19:04:03.772,1789337043.7729483,-181
2026-09-13 19:04:03.780,1789337043.7806406,-184
2026-09-13 19:04:03.788,1789337043.788333,-111
2026-09-13 19:04:03.796,1789337043.7960253,106
2026-09-13 19:04:03.803,1789337043.8037176,436
2026-09-13 19:04:03.811,1789337043.8114097,722
2026-09-13 19:04:03.819,1789337043.819102,521
2026-09-13 19:04:03.826,1789337043.8267944,-257
2026-09-13 19:04:03.833,1789337043.833864,-645
2026-09-13 19:04:03.841,1789337043.8415563,-320
2026-09-13 19:04:03.849,1789337043.8492486,-157
2026-09-13 19:04:03.856,1789337043.856941,-281
2026-09-13 19:04:03.864,1789337043.8646333,-252
2026-09-13 19:04:03.872,1789337043.8723254,-194
2026-09-13 19:04:03.880,1789337043.8800178,-225
2026-09-13 19:04:03.887,1789337043.88771,-223
2026-09-13 19:04:03.895,1789337043.8954024,-194
2026-09-13 19:04:03.903,1789337043.9030948,-196
2026-09-13 19:04:03.910,1789337043.910787,-194
2026-09-13 19:04:03.918,1789337043.9184794,-174
2026-09-13 19:04:03.926,1789337043.9261718,-162
2026-09-13 19:04:03.933,1789337043.9338639,-155
2026-09-13 19:04:03.941,1789337043.9415562,-140
2026-09-13 19:04:03.949,1789337043.9492486,-133
2026-09-13 19:04:03.956,1789337043.956941,-130
2026-09-13 19:04:03.964,1789337043.9646332,-111
2026-09-13 19:04:03.972,1789337043.9723256,-80
2026-09-13 19:04:03.980,1789337043.980018,-60
2026-09-13 19:04:03.987,1789337043.9877102,-50
2026-09-13 19:04:03.995,1789337043.9954023,-38
2026-09-13 19:04:04.003,1789337044.0030947,-19
2026-09-13 19:04:04.010,1789337044.010787,0
2026-09-13 19:04:04.018,1789337044.0184793,0
2026-09-13 19:04:04.026,1789337044.0261717,-9
2026-09-13 19:04:04.033,1789337044.033864,-9
2026-09-13 19:04:04.041,1789337044.0415564,-14
2026-09-13 19:04:04.049,1789337044.0492487,-43
2026-09-13 19:04:04.056,1789337044.0569408,-84
2026-09-13 19:04:04.064,1789337044.0646331,-121
2026-09-13 19:04:04.072,1789337044.0723255,-162
2026-09-13 19:04:04.080,1789337044.0800178,-203
2026-09-13 19:04:04.087,1789337044.0877101,-230
2026-09-13 19:04:04.095,1789337044.0954025,-240
2026-09-13 19:04:04.103,1789337044.1030948,-247
2026-09-13 19:04:04.110,1789337044.1107872,-254
2026-09-13 19:04:04.118,1789337044.1184793,-254
2026-09-13 19:04:04.126,1789337044.1261716,-240
2026-09-13 19:04:04.133,1789337044.133864,-230
2026-09-13 19:04:04.141,1789337044.1415563,-225
2026-09-13 19:04:04.149,1789337044.1492486,-218
2026-09-13 19:04:04.156,1789337044.156941,-208
2026-09-13 19:04:04.164,1789337044.1646333,-198
2026-09-13 19:04:04.172,1789337044.1723256,-194
2026-09-13 19:04:04.180,1789337044.1800177,-194
2026-09-13 19:04:04.187,1789337044.18771,-191
2026-09-13 19:04:04.195,1789337044.1954024,-184
2026-09-13 19:04:04.203,1789337044.2030947,-179
2026-09-13 19:04:04.210,1789337044.210787,-174
2026-09-13 19:04:04.218,1789337044.2184794,-177
2026-09-13 19:04:04.226,1789337044.2261717,-181
2026-09-13 19:04:04.233,1789337044.233864,-177
2026-09-13 19:04:04.241,1789337044.2415562,-169
2026-09-13 19:04:04.249,1789337044.2492485,-177
2026-09-13 19:04:04.256,1789337044.2569408,-186
2026-09-13 19:04:04.264,1789337044.2646332,-181
2026-09-13 19:04:04.272,1789337044.2723255,-181
2026-09-13 19:04:04.280,1789337044.2800179,-184
2026-09-13 19:04:04.287,1789337044.2877102,-164
2026-09-13 19:04:04.295,1789337044.2954025,-138
2026-09-13 19:04:04.303,1789337044.3030946,-121
2026-09-13 19:04:04.310,1789337044.310787,-123
2026-09-13 19:04:04.318,1789337044.3184793,-138
2026-09-13 19:04:04.326,1789337044.3261716,-145
2026-09-13 19:04:04.333,1789337044.333864,-157
2026-09-13 19:04:04.341,1789337044.3415563,-167
2026-09-13 19:04:04.349,1789337044.3492486,-174
2026-09-13 19:04:04.356,1789337044.356941,-177
2026-09-13 19:04:04.364,1789337044.3646333,-164
2026-09-13 19:04:04.372,1789337044.3723254,-160
2026-09-13 19:04:04.380,1789337044.3800178,-169
2026-09-13 19:04:04.387,1789337044.38771,-162
2026-09-13 19:04:04.394,1789337044.3948102,-147
2026-09-13 19:04:04.402,1789337044.4025025,-104
2026-09-13 19:04:04.410,1789337044.4101949,77
2026-09-13 19:04:04.417,1789337044.4178872,414
2026-09-13 19:04:04.425,1789337044.4255795,717
2026-09-13 19:04:04.433,1789337044.4332716,535
2026-09-13 19:04:04.440,1789337044.440964,-206
2026-09-13 19:04:04.448,1789337044.4486563,-613
2026-09-13 19:04:04.456,1789337044.4563487,-303
2026-09-13 19:04:04.464,1789337044.464041,-113
2026-09-13 19:04:04.471,1789337044.4717333,-242
2026-09-13 19:04:04.479,1789337044.4794257,-230
2026-09-13 19:04:04.487,1789337044.487118,-162
2026-09-13 19:04:04.494,1789337044.49481,-191
2026-09-13 19:04:04.502,1789337044.5025024,-194
2026-09-13 19:04:04.510,1789337044.5101948,-174
2026-09-13 19:04:04.517,1789337044.517887,-174
2026-09-13 19:04:04.525,1789337044.5255795,-160
2026-09-13 19:04:04.533,1789337044.5332718,-138
2026-09-13 19:04:04.540,1789337044.5409641,-130
2026-09-13 19:04:04.548,1789337044.5486565,-113
2026-09-13 19:04:04.556,1789337044.5563486,-101
2026-09-13 19:04:04.564,1789337044.564041,-101
2026-09-13 19:04:04.571,1789337044.5717332,-80
2026-09-13 19:04:04.579,1789337044.5794256,-50
2026-09-13 19:04:04.587,1789337044.587118,-46
2026-09-13 19:04:04.594,1789337044.5948102,-38
2026-09-13 19:04:04.602,1789337044.6025026,-9
2026-09-13 19:04:04.610,1789337044.610195,14
2026-09-13 19:04:04.617,1789337044.617887,19
2026-09-13 19:04:04.625,1789337044.6255794,33
2026-09-13 19:04:04.633,1789337044.6332717,46
2026-09-13 19:04:04.640,1789337044.640964,41
2026-09-13 19:04:04.648,1789337044.6486564,43
2026-09-13 19:04:04.656,1789337044.6563487,38
2026-09-13 19:04:04.664,1789337044.664041,-12
2026-09-13 19:04:04.671,1789337044.6717334,-72
2026-09-13 19:04:04.679,1789337044.6794255,-99
2026-09-13 19:04:04.687,1789337044.6871178,-138
2026-09-13 19:04:04.694,1789337044.6948102,-189
2026-09-13 19:04:04.702,1789337044.7025025,-203
2026-09-13 19:04:04.710,1789337044.7101948,-189
2026-09-13 19:04:04.717,1789337044.7178872,-198
2026-09-13 19:04:04.725,1789337044.7255795,-218
2026-09-13 19:04:04.733,1789337044.7332718,-223
2026-09-13 19:04:04.740,1789337044.740964,-206
2026-09-13 19:04:04.748,1789337044.7486563,-194
2026-09-13 19:04:04.756,1789337044.7563486,-189
2026-09-13 19:04:04.764,1789337044.764041,-184
2026-09-13 19:04:04.771,1789337044.7717333,-179
2026-09-13 19:04:04.779,1789337044.7794256,-174
2026-09-13 19:04:04.787,1789337044.787118,-164
2026-09-13 19:04:04.794,1789337044.7948103,-157
2026-09-13 19:04:04.802,1789337044.8025024,-162
2026-09-13 19:04:04.810,1789337044.8101947,-162
2026-09-13 19:04:04.817,1789337044.817887,-140
2026-09-13 19:04:04.825,1789337044.8255794,-133
2026-09-13 19:04:04.833,1789337044.8332717,-155
2026-09-13 19:04:04.840,1789337044.840964,-169
2026-09-13 19:04:04.848,1789337044.8486564,-160
2026-09-13 19:04:04.856,1789337044.8563488,-164
2026-09-13 19:04:04.864,1789337044.8640409,-181
2026-09-13 19:04:04.871,1789337044.8717332,-172
2026-09-13 19:04:04.879,1789337044.8794255,-152
2026-09-13 19:04:04.887,1789337044.8871179,-140
2026-09-13 19:04:04.894,1789337044.8948102,-130
2026-09-13 19:04:04.902,1789337044.9025025,-116
2026-09-13 19:04:04.910,1789337044.9101949,-106
2026-09-13 19:04:04.917,1789337044.9178872,-123
2026-09-13 19:04:04.925,1789337044.9255795,-155
2026-09-13 19:04:04.933,1789337044.9332716,-172
2026-09-13 19:04:04.940,1789337044.940964,-179
2026-09-13 19:04:04.948,1789337044.9486563,-181
2026-09-13 19:04:04.955,1789337044.9557261,-172
2026-09-13 19:04:04.963,1789337044.9634185,-157
2026-09-13 19:04:04.971,1789337044.9711108,-167
2026-09-13 19:04:04.978,1789337044.9788032,-194
2026-09-13 19:04:04.986,1789337044.9864955,-191
2026-09-13 19:04:04.994,1789337044.9941876,-157
2026-09-13 19:04:05.001,1789337045.00188,-77
2026-09-13 19:04:05.009,1789337045.0095723,140
2026-09-13 19:04:05.017,1789337045.0172646,480
2026-09-13 19:04:05.024,1789337045.024957,696
2026-09-13 19:04:05.032,1789337045.0326493,344
2026-09-13 19:04:05.040,1789337045.0403416,-397
2026-09-13 19:04:05.048,1789337045.048034,-569
2026-09-13 19:04:05.055,1789337045.055726,-208
2026-09-13 19:04:05.063,1789337045.0634184,-152
2026-09-13 19:04:05.071,1789337045.0711107,-283
2026-09-13 19:04:05.078,1789337045.078803,-237
2026-09-13 19:04:05.086,1789337045.0864954,-196
2026-09-13 19:04:05.094,1789337045.0941877,-227
2026-09-13 19:04:05.101,1789337045.10188,-218
2026-09-13 19:04:05.109,1789337045.1095724,-194
2026-09-13 19:04:05.117,1789337045.1172645,-196
2026-09-13 19:04:05.124,1789337045.1249568,-186
2026-09-13 19:04:05.132,1789337045.1326492,-162
2026-09-13 19:04:05.140,1789337045.1403415,-157
2026-09-13 19:04:05.148,1789337045.1480339,-157
2026-09-13 19:04:05.155,1789337045.1557262,-145
2026-09-13 19:04:05.163,1789337045.1634185,-130
2026-09-13 19:04:05.171,1789337045.1711109,-126
2026-09-13 19:04:05.178,1789337045.178803,-111
2026-09-13 19:04:05.186,1789337045.1864953,-89
2026-09-13 19:04:05.194,1789337045.1941876,-72
2026-09-13 19:04:05.201,1789337045.20188,-65
2026-09-13 19:04:05.209,1789337045.2095723,-53
2026-09-13 19:04:05.217,1789337045.2172647,-41
2026-09-13 19:04:05.224,1789337045.224957,-38
2026-09-13 19:04:05.232,1789337045.2326493,-48
2026-09-13 19:04:05.240,1789337045.2403414,-48
2026-09-13 19:04:05.248,1789337045.2480338,-48
2026-09-13 19:04:05.255,1789337045.255726,-75
2026-09-13 19:04:05.263,1789337045.2634184,-116
2026-09-13 19:04:05.271,1789337045.2711108,-145
2026-09-13 19:04:05.278,1789337045.278803,-169
2026-09-13 19:04:05.286,1789337045.2864954,-198
2026-09-13 19:04:05.294,1789337045.2941878,-218
2026-09-13 19:04:05.301,1789337045.30188,-227
2026-09-13 19:04:05.309,1789337045.3095722,-237
2026-09-13 19:04:05.317,1789337045.3172646,-240
2026-09-13 19:04:05.324,1789337045.324957,-237
2026-09-13 19:04:05.332,1789337045.3326492,-235
2026-09-13 19:04:05.340,1789337045.3403416,-227
2026-09-13 19:04:05.348,1789337045.348034,-213
2026-09-13 19:04:05.355,1789337045.3557262,-213
2026-09-13 19:04:05.363,1789337045.3634183,-210
2026-09-13 19:04:05.371,1789337045.3711107,-201
2026-09-13 19:04:05.378,1789337045.378803,-196
2026-09-13 19:04:05.386,1789337045.3864954,-194
2026-09-13 19:04:05.394,1789337045.3941877,-186
2026-09-13 19:04:05.401,1789337045.40188,-184
2026-09-13 19:04:05.409,1789337045.4095724,-181
2026-09-13 19:04:05.417,1789337045.4172647,-177
2026-09-13 19:04:05.424,1789337045.4249568,-174
2026-09-13 19:04:05.432,1789337045.4326491,-177
2026-09-13 19:04:05.440,1789337045.4403415,-186
2026-09-13 19:04:05.448,1789337045.4480338,-196
2026-09-13 19:04:05.455,1789337045.4557261,-196
2026-09-13 19:04:05.463,1789337045.4634185,-189
2026-09-13 19:04:05.471,1789337045.4711108,-179
2026-09-13 19:04:05.478,1789337045.4788032,-162
2026-09-13 19:04:05.486,1789337045.4864955,-145
2026-09-13 19:04:05.494,1789337045.4941876,-135
2026-09-13 19:04:05.501,1789337045.50188,-143
2026-09-13 19:04:05.509,1789337045.5095723,-162
2026-09-13 19:04:05.516,1789337045.5166724,-184
2026-09-13 19:04:05.524,1789337045.5243647,-194
2026-09-13 19:04:05.532,1789337045.532057,-191
2026-09-13 19:04:05.539,1789337045.5397494,-191
2026-09-13 19:04:05.547,1789337045.5474417,-191
2026-09-13 19:04:05.555,1789337045.5551338,-191
2026-09-13 19:04:05.562,1789337045.5628262,-186
2026-09-13 19:04:05.570,1789337045.5705185,-184
2026-09-13 19:04:05.578,1789337045.5782108,-194
2026-09-13 19:04:05.585,1789337045.5859032,-189
2026-09-13 19:04:05.593,1789337045.5935955,-87
2026-09-13 19:04:05.601,1789337045.6012878,150
2026-09-13 19:04:05.608,1789337045.6089802,482
2026-09-13 19:04:05.616,1789337045.6166723,642
2026-09-13 19:04:05.624,1789337045.6243646,189
2026-09-13 19:04:05.632,1789337045.632057,-489
2026-09-13 19:04:05.639,1789337045.6397493,-499
2026-09-13 19:04:05.647,1789337045.6474416,-162
2026-09-13 19:04:05.655,1789337045.655134,-189
2026-09-13 19:04:05.662,1789337045.6628263,-286
2026-09-13 19:04:05.670,1789337045.6705186,-210
2026-09-13 19:04:05.678,1789337045.6782107,-194
2026-09-13 19:04:05.685,1789337045.685903,-232
2026-09-13 19:04:05.693,1789337045.6935954,-206
2026-09-13 19:04:05.701,1789337045.7012877,-177
2026-09-13 19:04:05.708,1789337045.70898,-181
2026-09-13 19:04:05.716,1789337045.7166724,-177
2026-09-13 19:04:05.724,1789337045.7243648,-162
2026-09-13 19:04:05.732,1789337045.732057,-155
2026-09-13 19:04:05.739,1789337045.7397492,-150
2026-09-13 19:04:05.747,1789337045.7474415,-140
2026-09-13 19:04:05.755,1789337045.7551339,-130
2026-09-13 19:04:05.762,1789337045.7628262,-118
2026-09-13 19:04:05.770,1789337045.7705185,-106
2026-09-13 19:04:05.778,1789337045.7782109,-92
2026-09-13 19:04:05.785,1789337045.7859032,-77
2026-09-13 19:04:05.793,1789337045.7935956,-65
2026-09-13 19:04:05.801,1789337045.8012877,-58
2026-09-13 19:04:05.808,1789337045.80898,-53
2026-09-13 19:04:05.816,1789337045.8166723,-53
2026-09-13 19:04:05.824,1789337045.8243647,-55
2026-09-13 19:04:05.832,1789337045.832057,-65
2026-09-13 19:04:05.839,1789337045.8397493,-72
2026-09-13 19:04:05.847,1789337045.8474417,-89
2026-09-13 19:04:05.855,1789337045.855134,-116
2026-09-13 19:04:05.862,1789337045.862826,-143
2026-09-13 19:04:05.870,1789337045.8705184,-164
2026-09-13 19:04:05.878,1789337045.8782108,-184
2026-09-13 19:04:05.885,1789337045.8859031,-201
2026-09-13 19:04:05.893,1789337045.8935955,-208
2026-09-13 19:04:05.901,1789337045.9012878,-210
2026-09-13 19:04:05.908,1789337045.9089801,-208
2026-09-13 19:04:05.916,1789337045.9166725,-206
2026-09-13 19:04:05.924,1789337045.9243646,-198
2026-09-13 19:04:05.932,1789337045.932057,-191
2026-09-13 19:04:05.939,1789337045.9397492,-184
2026-09-13 19:04:05.947,1789337045.9474416,-177
2026-09-13 19:04:05.955,1789337045.955134,-169
2026-09-13 19:04:05.962,1789337045.9628263,-162
2026-09-13 19:04:05.970,1789337045.9705186,-157
2026-09-13 19:04:05.978,1789337045.978211,-155
2026-09-13 19:04:05.985,1789337045.985903,-152
2026-09-13 19:04:05.993,1789337045.9935954,-152
2026-09-13 19:04:06.001,1789337046.0012877,-155
2026-09-13 19:04:06.008,1789337046.00898,-157
2026-09-13 19:04:06.016,1789337046.0166724,-162
2026-09-13 19:04:06.024,1789337046.0243647,-164
2026-09-13 19:04:06.032,1789337046.032057,-167
2026-09-13 19:04:06.039,1789337046.0397494,-174
2026-09-13 19:04:06.047,1789337046.0474417,-177
2026-09-13 19:04:06.055,1789337046.0551338,-169
2026-09-13 19:04:06.062,1789337046.0628262,-164
2026-09-13 19:04:06.070,1789337046.0705185,-157
2026-09-13 19:04:06.077,1789337046.0775933,-133
2026-09-13 19:04:06.085,1789337046.0852857,-111
2026-09-13 19:04:06.092,1789337046.092978,-109
2026-09-13 19:04:06.100,1789337046.1006703,-123
2026-09-13 19:04:06.108,1789337046.1083627,-140
2026-09-13 19:04:06.116,1789337046.1160548,-160
2026-09-13 19:04:06.123,1789337046.123747,-169
2026-09-13 19:04:06.131,1789337046.1314394,-172
2026-09-13 19:04:06.139,1789337046.1391318,-167
2026-09-13 19:04:06.146,1789337046.1468241,-164
2026-09-13 19:04:06.154,1789337046.1545165,-164
2026-09-13 19:04:06.162,1789337046.1622088,-164
2026-09-13 19:04:06.169,1789337046.1699011,-167
2026-09-13 19:04:06.177,1789337046.1775932,-169
2026-09-13 19:04:06.185,1789337046.1852856,-116
2026-09-13 19:04:06.192,1789337046.192978,58
2026-09-13 19:04:06.200,1789337046.2006702,363
2026-09-13 19:04:06.208,1789337046.2083626,725
2026-09-13 19:04:06.216,1789337046.216055,698
2026-09-13 19:04:06.223,1789337046.2237473,-14
2026-09-13 19:04:06.231,1789337046.2314396,-540
2026-09-13 19:04:06.239,1789337046.2391317,-310
2026-09-13 19:04:06.246,1789337046.246824,-109
2026-09-13 19:04:06.254,1789337046.2545164,-249
2026-09-13 19:04:06.262,1789337046.2622087,-264
2026-09-13 19:04:06.269,1789337046.269901,-186
2026-09-13 19:04:06.277,1789337046.2775934,-210
2026-09-13 19:04:06.285,1789337046.2852857,-223
2026-09-13 19:04:06.292,1789337046.292978,-184
2026-09-13 19:04:06.300,1789337046.3006701,-179
2026-09-13 19:04:06.308,1789337046.3083625,-181
2026-09-13 19:04:06.316,1789337046.3160548,-162
2026-09-13 19:04:06.323,1789337046.3237472,-155
2026-09-13 19:04:06.331,1789337046.3314395,-155
2026-09-13 19:04:06.339,1789337046.3391318,-143
2026-09-13 19:04:06.346,1789337046.3468242,-133
2026-09-13 19:04:06.354,1789337046.3545165,-126
2026-09-13 19:04:06.362,1789337046.3622086,-111
2026-09-13 19:04:06.369,1789337046.369901,-101
2026-09-13 19:04:06.377,1789337046.3775933,-97
2026-09-13 19:04:06.385,1789337046.3852856,-89
2026-09-13 19:04:06.392,1789337046.392978,-82
2026-09-13 19:04:06.400,1789337046.4006703,-82
2026-09-13 19:04:06.408,1789337046.4083626,-84
2026-09-13 19:04:06.416,1789337046.416055,-84
2026-09-13 19:04:06.423,1789337046.423747,-92
2026-09-13 19:04:06.431,1789337046.4314394,-101
2026-09-13 19:04:06.439,1789337046.4391317,-106
2026-09-13 19:04:06.446,1789337046.446824,-111
2026-09-13 19:04:06.454,1789337046.4545164,-128
2026-09-13 19:04:06.462,1789337046.4622087,-147
2026-09-13 19:04:06.469,1789337046.469901,-164
2026-09-13 19:04:06.477,1789337046.4775934,-179
2026-09-13 19:04:06.485,1789337046.4852855,-184
2026-09-13 19:04:06.492,1789337046.4929779,-189
2026-09-13 19:04:06.500,1789337046.5006702,-191
2026-09-13 19:04:06.508,1789337046.5083625,-186
2026-09-13 19:04:06.516,1789337046.5160549,-179
2026-09-13 19:04:06.523,1789337046.5237472,-177
2026-09-13 19:04:06.531,1789337046.5314395,-169
2026-09-13 19:04:06.539,1789337046.5391319,-157
2026-09-13 19:04:06.546,1789337046.546824,-150
2026-09-13 19:04:06.554,1789337046.5545163,-145
2026-09-13 19:04:06.562,1789337046.5622087,-140
2026-09-13 19:04:06.569,1789337046.569901,-140
2026-09-13 19:04:06.577,1789337046.5775933,-135
2026-09-13 19:04:06.585,1789337046.5852857,-133
2026-09-13 19:04:06.592,1789337046.592978,-135
2026-09-13 19:04:06.600,1789337046.6006703,-133
2026-09-13 19:04:06.608,1789337046.6083627,-130
2026-09-13 19:04:06.616,1789337046.6160548,-133
2026-09-13 19:04:06.623,1789337046.623747,-133
2026-09-13 19:04:06.631,1789337046.6314394,-133
2026-09-13 19:04:06.638,1789337046.6385343,-135
2026-09-13 19:04:06.646,1789337046.6462266,-138
2026-09-13 19:04:06.653,1789337046.653919,-147
2026-09-13 19:04:06.661,1789337046.6616113,-155
2026-09-13 19:04:06.669,1789337046.6693037,-150
2026-09-13 19:04:06.676,1789337046.6769958,-143
2026-09-13 19:04:06.684,1789337046.684688,-133
2026-09-13 19:04:06.692,1789337046.6923804,-109
2026-09-13 19:04:06.700,1789337046.7000728,-87
2026-09-13 19:04:06.707,1789337046.707765,-84
2026-09-13 19:04:06.715,1789337046.7154574,-92
2026-09-13 19:04:06.723,1789337046.7231498,-109
2026-09-13 19:04:06.730,1789337046.730842,-126
2026-09-13 19:04:06.738,1789337046.7385342,-140
2026-09-13 19:04:06.746,1789337046.7462265,-143
2026-09-13 19:04:06.753,1789337046.753919,-143
2026-09-13 19:04:06.761,1789337046.7616112,-140
2026-09-13 19:04:06.769,1789337046.7693036,-135
2026-09-13 19:04:06.776,1789337046.776996,-135
2026-09-13 19:04:06.784,1789337046.7846882,-143
2026-09-13 19:04:06.792,1789337046.7923806,-143
2026-09-13 19:04:06.800,1789337046.8000727,-89
2026-09-13 19:04:06.807,1789337046.807765,77
2026-09-13 19:04:06.815,1789337046.8154573,366
2026-09-13 19:04:06.823,1789337046.8231497,744
2026-09-13 19:04:06.830,1789337046.830842,790
2026-09-13 19:04:06.838,1789337046.8385344,106
2026-09-13 19:04:06.846,1789337046.8462267,-502
2026-09-13 19:04:06.853,1789337046.853919,-324
2026-09-13 19:04:06.861,1789337046.8616111,-92
2026-09-13 19:04:06.869,1789337046.8693035,-215
2026-09-13 19:04:06.876,1789337046.8769958,-249
2026-09-13 19:04:06.884,1789337046.8846881,-167
2026-09-13 19:04:06.892,1789337046.8923805,-186
2026-09-13 19:04:06.900,1789337046.9000728,-206
2026-09-13 19:04:06.907,1789337046.9077652,-172
2026-09-13 19:04:06.915,1789337046.9154575,-162
2026-09-13 19:04:06.923,1789337046.9231496,-169
2026-09-13 19:04:06.930,1789337046.930842,-155
2026-09-13 19:04:06.938,1789337046.9385343,-143
2026-09-13 19:04:06.946,1789337046.9462266,-140
2026-09-13 19:04:06.953,1789337046.953919,-133
2026-09-13 19:04:06.961,1789337046.9616113,-123
2026-09-13 19:04:06.969,1789337046.9693036,-113
2026-09-13 19:04:06.976,1789337046.976996,-106
2026-09-13 19:04:06.984,1789337046.984688,-97
2026-09-13 19:04:06.992,1789337046.9923804,-89
2026-09-13 19:04:07.000,1789337047.0000727,-84
2026-09-13 19:04:07.007,1789337047.007765,-77
2026-09-13 19:04:07.015,1789337047.0154574,-75
2026-09-13 19:04:07.023,1789337047.0231497,-82
2026-09-13 19:04:07.030,1789337047.030842,-89
2026-09-13 19:04:07.038,1789337047.0385344,-92
2026-09-13 19:04:07.046,1789337047.0462265,-97
2026-09-13 19:04:07.053,1789337047.0539188,-106
2026-09-13 19:04:07.061,1789337047.0616112,-121
2026-09-13 19:04:07.069,1789337047.0693035,-135
2026-09-13 19:04:07.076,1789337047.0769958,-152
2026-09-13 19:04:07.084,1789337047.0846882,-174
2026-09-13 19:04:07.092,1789337047.0923805,-189
2026-09-13 19:04:07.100,1789337047.1000729,-196
2026-09-13 19:04:07.107,1789337047.107765,-201
2026-09-13 19:04:07.115,1789337047.1154573,-206
2026-09-13 19:04:07.123,1789337047.1231496,-206
2026-09-13 19:04:07.130,1789337047.130842,-201
2026-09-13 19:04:07.138,1789337047.1385343,-196
2026-09-13 19:04:07.146,1789337047.1462266,-189
2026-09-13 19:04:07.153,1789337047.153919,-184
2026-09-13 19:04:07.161,1789337047.1616113,-177
2026-09-13 19:04:07.169,1789337047.1693037,-172
2026-09-13 19:04:07.176,1789337047.1769958,-167
2026-09-13 19:04:07.184,1789337047.184688,-164
2026-09-13 19:04:07.192,1789337047.1923804,-162
2026-09-13 19:04:07.199,1789337047.1994503,-162
2026-09-13 19:04:07.207,1789337047.2071426,-162
2026-09-13 19:04:07.214,1789337047.214835,-160
2026-09-13 19:04:07.222,1789337047.2225273,-162
2026-09-13 19:04:07.230,1789337047.2302196,-164
2026-09-13 19:04:07.237,1789337047.2379117,-167
2026-09-13 19:04:07.245,1789337047.245604,-169
2026-09-13 19:04:07.253,1789337047.2532964,-167
2026-09-13 19:04:07.260,1789337047.2609887,-167
2026-09-13 19:04:07.268,1789337047.268681,-172
2026-09-13 19:04:07.276,1789337047.2763734,-174
2026-09-13 19:04:07.284,1789337047.2840657,-174
2026-09-13 19:04:07.291,1789337047.291758,-174
2026-09-13 19:04:07.299,1789337047.2994502,-172
2026-09-13 19:04:07.307,1789337047.3071425,-174
2026-09-13 19:04:07.314,1789337047.3148348,-184
2026-09-13 19:04:07.322,1789337047.3225272,-194
2026-09-13 19:04:07.330,1789337047.3302195,-191
2026-09-13 19:04:07.337,1789337047.3379118,-184
2026-09-13 19:04:07.345,1789337047.3456042,-174
2026-09-13 19:04:07.353,1789337047.3532965,-150
2026-09-13 19:04:07.360,1789337047.3609886,-123
2026-09-13 19:04:07.368,1789337047.368681,-116
2026-09-13 19:04:07.376,1789337047.3763733,-126
2026-09-13 19:04:07.384,1789337047.3840656,-138
2026-09-13 19:04:07.391,1789337047.391758,-157
2026-09-13 19:04:07.399,1789337047.3994503,-177
2026-09-13 19:04:07.407,1789337047.4071426,-181
2026-09-13 19:04:07.414,1789337047.414835,-181
2026-09-13 19:04:07.422,1789337047.422527,-184
2026-09-13 19:04:07.430,1789337047.4302194,-181
2026-09-13 19:04:07.437,1789337047.4379117,-177
2026-09-13 19:04:07.445,1789337047.445604,-179
2026-09-13 19:04:07.453,1789337047.4532964,-181
2026-09-13 19:04:07.460,1789337047.4609888,-123
2026-09-13 19:04:07.468,1789337047.468681,36
2026-09-13 19:04:07.476,1789337047.4763734,291
2026-09-13 19:04:07.484,1789337047.4840655,632
2026-09-13 19:04:07.491,1789337047.4917579,693
2026-09-13 19:04:07.499,1789337047.4994502,67
2026-09-13 19:04:07.507,1789337047.5071425,-523
2026-09-13 19:04:07.514,1789337047.514835,-383
2026-09-13 19:04:07.522,1789337047.5225272,-157
2026-09-13 19:04:07.530,1789337047.5302196,-261
2026-09-13 19:04:07.537,1789337047.537912,-300
2026-09-13 19:04:07.545,1789337047.545604,-230
2026-09-13 19:04:07.553,1789337047.5532963,-242
2026-09-13 19:04:07.560,1789337047.5609887,-257
2026-09-13 19:04:07.568,1789337047.568681,-225
2026-09-13 19:04:07.576,1789337047.5763733,-213
2026-09-13 19:04:07.584,1789337047.5840657,-213
2026-09-13 19:04:07.591,1789337047.591758,-198
2026-09-13 19:04:07.599,1789337047.5994503,-189
2026-09-13 19:04:07.607,1789337047.6071424,-184
2026-09-13 19:04:07.614,1789337047.6148348,-177
2026-09-13 19:04:07.622,1789337047.6225271,-164
2026-09-13 19:04:07.630,1789337047.6302195,-157
2026-09-13 19:04:07.637,1789337047.6379118,-145
2026-09-13 19:04:07.645,1789337047.6456041,-135
2026-09-13 19:04:07.653,1789337047.6532965,-126
2026-09-13 19:04:07.660,1789337047.6609888,-116
2026-09-13 19:04:07.668,1789337047.668681,-109
2026-09-13 19:04:07.676,1789337047.6763732,-104
2026-09-13 19:04:07.684,1789337047.6840656,-106
2026-09-13 19:04:07.691,1789337047.691758,-109
2026-09-13 19:04:07.699,1789337047.6994503,-109
2026-09-13 19:04:07.707,1789337047.7071426,-109
2026-09-13 19:04:07.714,1789337047.714835,-113
2026-09-13 19:04:07.722,1789337047.7225273,-123
2026-09-13 19:04:07.730,1789337047.7302196,-138
2026-09-13 19:04:07.737,1789337047.7379117,-155
2026-09-13 19:04:07.745,1789337047.745604,-174
2026-09-13 19:04:07.753,1789337047.7532964,-196
2026-09-13 19:04:07.760,1789337047.7603862,-208
2026-09-13 19:04:07.768,1789337047.7680786,-213
2026-09-13 19:04:07.775,1789337047.775771,-223
2026-09-13 19:04:07.783,1789337047.7834632,-230
2026-09-13 19:04:07.791,1789337047.7911556,-223
2026-09-13 19:04:07.798,1789337047.7988477,-213
2026-09-13 19:04:07.806,1789337047.80654,-206
2026-09-13 19:04:07.814,1789337047.8142323,-201
2026-09-13 19:04:07.821,1789337047.8219247,-201
2026-09-13 19:04:07.829,1789337047.829617,-201
2026-09-13 19:04:07.837,1789337047.8373094,-184
2026-09-13 19:04:07.845,1789337047.8450017,-174
2026-09-13 19:04:07.852,1789337047.852694,-189
2026-09-13 19:04:07.860,1789337047.8603861,-191
2026-09-13 19:04:07.868,1789337047.8680785,-172
2026-09-13 19:04:07.875,1789337047.8757708,-164
2026-09-13 19:04:07.883,1789337047.8834631,-167
2026-09-13 19:04:07.891,1789337047.8911555,-160
2026-09-13 19:04:07.898,1789337047.8988478,-155
2026-09-13 19:04:07.906,1789337047.9065402,-160
2026-09-13 19:04:07.914,1789337047.9142325,-164
2026-09-13 19:04:07.921,1789337047.9219246,-160
2026-09-13 19:04:07.929,1789337047.929617,-155
2026-09-13 19:04:07.937,1789337047.9373093,-155
2026-09-13 19:04:07.945,1789337047.9450016,-157
2026-09-13 19:04:07.952,1789337047.952694,-164
2026-09-13 19:04:07.960,1789337047.9603863,-167
2026-09-13 19:04:07.968,1789337047.9680786,-160
2026-09-13 19:04:07.975,1789337047.975771,-157
2026-09-13 19:04:07.983,1789337047.983463,-155
2026-09-13 19:04:07.991,1789337047.9911554,-155
2026-09-13 19:04:07.998,1789337047.9988477,-160
2026-09-13 19:04:08.006,1789337048.00654,-167
2026-09-13 19:04:08.014,1789337048.0142324,-162
2026-09-13 19:04:08.021,1789337048.0219247,-164
2026-09-13 19:04:08.029,1789337048.029617,-174
2026-09-13 19:04:08.037,1789337048.0373094,-164
2026-09-13 19:04:08.045,1789337048.0450015,-145
2026-09-13 19:04:08.052,1789337048.0526938,-133
2026-09-13 19:04:08.060,1789337048.0603862,-109
2026-09-13 19:04:08.068,1789337048.0680785,-89
2026-09-13 19:04:08.075,1789337048.0757709,-99
2026-09-13 19:04:08.083,1789337048.0834632,-123
2026-09-13 19:04:08.091,1789337048.0911555,-140
2026-09-13 19:04:08.098,1789337048.0988479,-152
2026-09-13 19:04:08.106,1789337048.10654,-164
2026-09-13 19:04:08.114,1789337048.1142323,-167
2026-09-13 19:04:08.121,1789337048.1219246,-162
2026-09-13 19:04:08.129,1789337048.129617,-157
2026-09-13 19:04:08.137,1789337048.1373093,-157
2026-09-13 19:04:08.145,1789337048.1450016,-164
2026-09-13 19:04:08.152,1789337048.152694,-164
2026-09-13 19:04:08.160,1789337048.1603863,-121
2026-09-13 19:04:08.168,1789337048.1680784,12
2026-09-13 19:04:08.175,1789337048.1757708,223
2026-09-13 19:04:08.183,1789337048.183463,497
2026-09-13 19:04:08.191,1789337048.1911554,591
2026-09-13 19:04:08.198,1789337048.1988478,135
2026-09-13 19:04:08.206,1789337048.20654,-409
2026-09-13 19:04:08.214,1789337048.2142324,-375
2026-09-13 19:04:08.221,1789337048.2219248,-162
2026-09-13 19:04:08.229,1789337048.2296169,-210
2026-09-13 19:04:08.237,1789337048.2373092,-254
2026-09-13 19:04:08.245,1789337048.2450016,-194
2026-09-13 19:04:08.252,1789337048.252694,-194
2026-09-13 19:04:08.260,1789337048.2603862,-215
2026-09-13 19:04:08.268,1789337048.2680786,-189
2026-09-13 19:04:08.275,1789337048.275771,-177
2026-09-13 19:04:08.283,1789337048.2834632,-186
2026-09-13 19:04:08.291,1789337048.2911556,-174
2026-09-13 19:04:08.298,1789337048.2988477,-157
2026-09-13 19:04:08.306,1789337048.30654,-152
2026-09-13 19:04:08.314,1789337048.3142323,-145
2026-09-13 19:04:08.321,1789337048.3213122,-135
2026-09-13 19:04:08.329,1789337048.3290045,-133
2026-09-13 19:04:08.336,1789337048.3366969,-121
2026-09-13 19:04:08.344,1789337048.3443892,-101
2026-09-13 19:04:08.352,1789337048.3520815,-97
2026-09-13 19:04:08.359,1789337048.3597736,-87
2026-09-13 19:04:08.367,1789337048.367466,-72
2026-09-13 19:04:08.375,1789337048.3751583,-65
2026-09-13 19:04:08.382,1789337048.3828506,-65
2026-09-13 19:04:08.390,1789337048.390543,-55
2026-09-13 19:04:08.398,1789337048.3982353,-50
2026-09-13 19:04:08.405,1789337048.4059277,-58
2026-09-13 19:04:08.413,1789337048.41362,-60
2026-09-13 19:04:08.421,1789337048.421312,-63
2026-09-13 19:04:08.429,1789337048.4290044,-77
2026-09-13 19:04:08.436,1789337048.4366968,-104
2026-09-13 19:04:08.444,1789337048.444389,-135
2026-09-13 19:04:08.452,1789337048.4520814,-160
2026-09-13 19:04:08.459,1789337048.4597738,-177
2026-09-13 19:04:08.467,1789337048.467466,-191
2026-09-13 19:04:08.475,1789337048.4751585,-194
2026-09-13 19:04:08.482,1789337048.4828506,-196
2026-09-13 19:04:08.490,1789337048.490543,-203
2026-09-13 19:04:08.498,1789337048.4982352,-201
2026-09-13 19:04:08.505,1789337048.5059276,-191
2026-09-13 19:04:08.513,1789337048.51362,-181
2026-09-13 19:04:08.521,1789337048.5213122,-172
2026-09-13 19:04:08.529,1789337048.5290046,-167
2026-09-13 19:04:08.536,1789337048.536697,-172
2026-09-13 19:04:08.544,1789337048.544389,-169
2026-09-13 19:04:08.552,1789337048.5520813,-160
2026-09-13 19:04:08.559,1789337048.5597737,-162
2026-09-13 19:04:08.567,1789337048.567466,-162
2026-09-13 19:04:08.575,1789337048.5751584,-152
2026-09-13 19:04:08.582,1789337048.5828507,-152
2026-09-13 19:04:08.590,1789337048.590543,-157
2026-09-13 19:04:08.598,1789337048.5982354,-152
2026-09-13 19:04:08.605,1789337048.6059275,-150
2026-09-13 19:04:08.613,1789337048.6136198,-152
2026-09-13 19:04:08.621,1789337048.6213121,-155
2026-09-13 19:04:08.629,1789337048.6290045,-152
2026-09-13 19:04:08.636,1789337048.6366968,-147
2026-09-13 19:04:08.644,1789337048.6443892,-152
2026-09-13 19:04:08.652,1789337048.6520815,-162
2026-09-13 19:04:08.659,1789337048.6597738,-157
2026-09-13 19:04:08.667,1789337048.667466,-152
2026-09-13 19:04:08.675,1789337048.6751583,-155
2026-09-13 19:04:08.682,1789337048.6828506,-157
2026-09-13 19:04:08.690,1789337048.690543,-160
2026-09-13 19:04:08.698,1789337048.6982353,-157
2026-09-13 19:04:08.705,1789337048.7059276,-157
2026-09-13 19:04:08.713,1789337048.71362,-167
2026-09-13 19:04:08.721,1789337048.7213123,-172
2026-09-13 19:04:08.729,1789337048.7290044,-157
2026-09-13 19:04:08.736,1789337048.7366967,-145
2026-09-13 19:04:08.744,1789337048.744389,-123
2026-09-13 19:04:08.752,1789337048.7520814,-97
2026-09-13 19:04:08.759,1789337048.7597737,-89
2026-09-13 19:04:08.767,1789337048.767466,-99
2026-09-13 19:04:08.775,1789337048.7751584,-109
2026-09-13 19:04:08.782,1789337048.7828507,-128
2026-09-13 19:04:08.790,1789337048.7905428,-155
2026-09-13 19:04:08.798,1789337048.7982352,-164
2026-09-13 19:04:08.805,1789337048.8059275,-160
2026-09-13 19:04:08.813,1789337048.8136199,-160
2026-09-13 19:04:08.821,1789337048.8213122,-157
2026-09-13 19:04:08.829,1789337048.8290045,-155
2026-09-13 19:04:08.836,1789337048.8366969,-157
2026-09-13 19:04:08.844,1789337048.8443892,-160
2026-09-13 19:04:08.852,1789337048.8520815,-143
2026-09-13 19:04:08.859,1789337048.8597736,-50
2026-09-13 19:04:08.867,1789337048.867466,126
2026-09-13 19:04:08.875,1789337048.8751583,366
2026-09-13 19:04:08.882,1789337048.8822381,526
2026-09-13 19:04:08.889,1789337048.8899305,232
2026-09-13 19:04:08.897,1789337048.8976228,-322
2026-09-13 19:04:08.905,1789337048.9053152,-417
2026-09-13 19:04:08.913,1789337048.9130075,-196
2026-09-13 19:04:08.920,1789337048.9206996,-184
2026-09-13 19:04:08.928,1789337048.928392,-242
2026-09-13 19:04:08.936,1789337048.9360843,-198
2026-09-13 19:04:08.943,1789337048.9437766,-186
2026-09-13 19:04:08.951,1789337048.951469,-203
2026-09-13 19:04:08.959,1789337048.9591613,-184
2026-09-13 19:04:08.966,1789337048.9668536,-167
2026-09-13 19:04:08.974,1789337048.974546,-169
2026-09-13 19:04:08.982,1789337048.982238,-157
2026-09-13 19:04:08.989,1789337048.9899304,-143
2026-09-13 19:04:08.997,1789337048.9976227,-138
2026-09-13 19:04:09.005,1789337049.005315,-133
2026-09-13 19:04:09.013,1789337049.0130074,-116
2026-09-13 19:04:09.020,1789337049.0206997,-101
2026-09-13 19:04:09.028,1789337049.028392,-89
2026-09-13 19:04:09.036,1789337049.0360844,-80
2026-09-13 19:04:09.043,1789337049.0437765,-72
2026-09-13 19:04:09.051,1789337049.0514688,-58
2026-09-13 19:04:09.059,1789337049.0591612,-38
2026-09-13 19:04:09.066,1789337049.0668535,-26
2026-09-13 19:04:09.074,1789337049.0745459,-14
2026-09-13 19:04:09.082,1789337049.0822382,-7
2026-09-13 19:04:09.089,1789337049.0899305,-9
2026-09-13 19:04:09.097,1789337049.0976229,-7
2026-09-13 19:04:09.105,1789337049.105315,-4
2026-09-13 19:04:09.113,1789337049.1130073,-7
2026-09-13 19:04:09.120,1789337049.1206996,-24
2026-09-13 19:04:09.128,1789337049.128392,-50
2026-09-13 19:04:09.136,1789337049.1360843,-84
2026-09-13 19:04:09.143,1789337049.1437767,-109
2026-09-13 19:04:09.151,1789337049.151469,-133
2026-09-13 19:04:09.159,1789337049.1591613,-155
2026-09-13 19:04:09.166,1789337049.1668534,-167
2026-09-13 19:04:09.174,1789337049.1745458,-169
2026-09-13 19:04:09.182,1789337049.182238,-169
2026-09-13 19:04:09.189,1789337049.1899304,-167
2026-09-13 19:04:09.197,1789337049.1976228,-164
2026-09-13 19:04:09.205,1789337049.205315,-162
2026-09-13 19:04:09.213,1789337049.2130075,-147
2026-09-13 19:04:09.220,1789337049.2206998,-135
2026-09-13 19:04:09.228,1789337049.228392,-135
2026-09-13 19:04:09.236,1789337049.2360842,-130
2026-09-13 19:04:09.243,1789337049.2437766,-123
2026-09-13 19:04:09.251,1789337049.251469,-126
2026-09-13 19:04:09.259,1789337049.2591612,-123
2026-09-13 19:04:09.266,1789337049.2668536,-116
2026-09-13 19:04:09.274,1789337049.274546,-116
2026-09-13 19:04:09.282,1789337049.2822382,-118
2026-09-13 19:04:09.289,1789337049.2899303,-113
2026-09-13 19:04:09.297,1789337049.2976227,-113
2026-09-13 19:04:09.305,1789337049.305315,-121
2026-09-13 19:04:09.313,1789337049.3130074,-123
2026-09-13 19:04:09.320,1789337049.3206997,-118
2026-09-13 19:04:09.328,1789337049.328392,-118
2026-09-13 19:04:09.336,1789337049.3360844,-121
2026-09-13 19:04:09.343,1789337049.3437767,-118
2026-09-13 19:04:09.351,1789337049.3514688,-116
2026-09-13 19:04:09.359,1789337049.3591611,-116
2026-09-13 19:04:09.366,1789337049.3668535,-118
2026-09-13 19:04:09.374,1789337049.3745458,-116
2026-09-13 19:04:09.382,1789337049.3822381,-121
2026-09-13 19:04:09.389,1789337049.3899305,-133
2026-09-13 19:04:09.397,1789337049.3976228,-130
2026-09-13 19:04:09.405,1789337049.4053152,-121
2026-09-13 19:04:09.413,1789337049.4130075,-109
2026-09-13 19:04:09.420,1789337049.4206996,-80
2026-09-13 19:04:09.428,1789337049.428392,-50
2026-09-13 19:04:09.436,1789337049.4360843,-43
2026-09-13 19:04:09.443,1789337049.443225,-55
2026-09-13 19:04:09.450,1789337049.4509172,-72
2026-09-13 19:04:09.458,1789337049.4586096,-99
2026-09-13 19:04:09.466,1789337049.466302,-116
2026-09-13 19:04:09.473,1789337049.4739943,-121
2026-09-13 19:04:09.481,1789337049.4816864,-118
2026-09-13 19:04:09.489,1789337049.4893787,-118
2026-09-13 19:04:09.497,1789337049.497071,-123
2026-09-13 19:04:09.504,1789337049.5047634,-126
2026-09-13 19:04:09.512,1789337049.5124557,-123
2026-09-13 19:04:09.520,1789337049.520148,-126
2026-09-13 19:04:09.527,1789337049.5278404,-84
2026-09-13 19:04:09.535,1789337049.5355327,77
2026-09-13 19:04:09.543,1789337049.5432248,356
2026-09-13 19:04:09.550,1789337049.5509171,666
2026-09-13 19:04:09.558,1789337049.5586095,676
2026-09-13 19:04:09.566,1789337049.5663018,50
2026-09-13 19:04:09.573,1789337049.5739942,-538
2026-09-13 19:04:09.581,1789337049.5816865,-371
2026-09-13 19:04:09.589,1789337049.5893788,-94
2026-09-13 19:04:09.597,1789337049.5970712,-179
2026-09-13 19:04:09.604,1789337049.6047633,-206
2026-09-13 19:04:09.612,1789337049.6124556,-130
2026-09-13 19:04:09.620,1789337049.620148,-145
2026-09-13 19:04:09.627,1789337049.6278403,-157
2026-09-13 19:04:09.635,1789337049.6355326,-118
2026-09-13 19:04:09.643,1789337049.643225,-111
2026-09-13 19:04:09.650,1789337049.6509173,-116
2026-09-13 19:04:09.658,1789337049.6586096,-101
2026-09-13 19:04:09.666,1789337049.6663017,-87
2026-09-13 19:04:09.673,1789337049.673994,-84
2026-09-13 19:04:09.681,1789337049.6816864,-77
2026-09-13 19:04:09.689,1789337049.6893787,-65
2026-09-13 19:04:09.697,1789337049.697071,-53
2026-09-13 19:04:09.704,1789337049.7047634,-36
2026-09-13 19:04:09.712,1789337049.7124557,-24
2026-09-13 19:04:09.720,1789337049.720148,-12
2026-09-13 19:04:09.727,1789337049.7278402,4
2026-09-13 19:04:09.735,1789337049.7355325,24
2026-09-13 19:04:09.743,1789337049.7432249,48
2026-09-13 19:04:09.750,1789337049.7509172,58
2026-09-13 19:04:09.758,1789337049.7586095,58
2026-09-13 19:04:09.766,1789337049.7663019,60
2026-09-13 19:04:09.773,1789337049.7739942,63
2026-09-13 19:04:09.781,1789337049.7816865,53
2026-09-13 19:04:09.789,1789337049.7893786,33
2026-09-13 19:04:09.797,1789337049.797071,4
2026-09-13 19:04:09.804,1789337049.8047633,-38
2026-09-13 19:04:09.812,1789337049.8124557,-82
2026-09-13 19:04:09.820,1789337049.820148,-118
2026-09-13 19:04:09.827,1789337049.8278403,-145
