timestamp_local,timestamp_epoch_s,ecg_uV
2026-09-11 19:37:52.962,1789166272.9623919,-24
2026-09-11 19:37:52.970,1789166272.9700842,-16
2026-09-11 19:37:52.977,1789166272.9777765,-14
2026-09-11 19:37:52.985,1789166272.9854689,-19
2026-09-11 19:37:52.993,1789166272.9931612,-29
2026-09-11 19:37:53.000,1789166273.0008533,-31
2026-09-11 19:37:53.008,1789166273.0085456,-29
2026-09-11 19:37:53.016,1789166273.016238,-29
2026-09-11 19:37:53.023,1789166273.0239303,-19
2026-09-11 19:37:53.031,1789166273.0316226,0
2026-09-11 19:37:53.039,1789166273.039315,16
2026-09-11 19:37:53.047,1789166273.0470073,26
2026-09-11 19:37:53.054,1789166273.0546997,14
2026-09-11 19:37:53.062,1789166273.0623918,-7
2026-09-11 19:37:53.070,1789166273.070084,-24
2026-09-11 19:37:53.077,1789166273.0777764,-36
2026-09-11 19:37:53.085,1789166273.0854688,-36
2026-09-11 19:37:53.093,1789166273.093161,-31
2026-09-11 19:37:53.100,1789166273.1008534,-24
2026-09-11 19:37:53.108,1789166273.1085458,-24
2026-09-11 19:37:53.116,1789166273.116238,-24
2026-09-11 19:37:53.123,1789166273.1239302,-26
2026-09-11 19:37:53.131,1789166273.1316226,-29
2026-09-11 19:37:53.139,1789166273.139315,-4
2026-09-11 19:37:53.147,1789166273.1470072,123
2026-09-11 19:37:53.154,1789166273.1546996,388
2026-09-11 19:37:53.162,1789166273.162392,715
2026-09-11 19:37:53.170,1789166273.1700842,938
2026-09-11 19:37:53.177,1789166273.1777766,606
2026-09-11 19:37:53.185,1789166273.1854687,-210
2026-09-11 19:37:53.193,1789166273.193161,-487
2026-09-11 19:37:53.200,1789166273.2008533,-121
2026-09-11 19:37:53.208,1789166273.2085457,-16
2026-09-11 19:37:53.216,1789166273.216238,-140
2026-09-11 19:37:53.223,1789166273.2239304,-84
2026-09-11 19:37:53.231,1789166273.2316227,-33
2026-09-11 19:37:53.239,1789166273.239315,-75
2026-09-11 19:37:53.247,1789166273.2470071,-60
2026-09-11 19:37:53.254,1789166273.2546995,-24
2026-09-11 19:37:53.262,1789166273.2623918,-29
2026-09-11 19:37:53.270,1789166273.2700841,-29
2026-09-11 19:37:53.277,1789166273.2777765,-9
2026-09-11 19:37:53.285,1789166273.2854688,0
2026-09-11 19:37:53.293,1789166273.2931612,4
2026-09-11 19:37:53.300,1789166273.3008535,19
2026-09-11 19:37:53.308,1789166273.3085456,31
2026-09-11 19:37:53.316,1789166273.316238,43
2026-09-11 19:37:53.323,1789166273.3239303,55
2026-09-11 19:37:53.331,1789166273.3316226,67
2026-09-11 19:37:53.339,1789166273.339315,82
2026-09-11 19:37:53.347,1789166273.3470073,94
2026-09-11 19:37:53.354,1789166273.3546996,101
2026-09-11 19:37:53.362,1789166273.362392,109
2026-09-11 19:37:53.370,1789166273.370084,111
2026-09-11 19:37:53.377,1789166273.3777764,106
2026-09-11 19:37:53.385,1789166273.3854687,101
2026-09-11 19:37:53.393,1789166273.393161,97
2026-09-11 19:37:53.400,1789166273.4008534,84
2026-09-11 19:37:53.408,1789166273.4085457,60
2026-09-11 19:37:53.416,1789166273.416238,29
2026-09-11 19:37:53.423,1789166273.4239304,0
2026-09-11 19:37:53.431,1789166273.4316225,-26
2026-09-11 19:37:53.439,1789166273.4393148,-53
2026-09-11 19:37:53.447,1789166273.4470072,-72
2026-09-11 19:37:53.454,1789166273.4546995,-80
2026-09-11 19:37:53.462,1789166273.4623919,-82
2026-09-11 19:37:53.470,1789166273.4700842,-77
2026-09-11 19:37:53.477,1789166273.4777765,-67
2026-09-11 19:37:53.485,1789166273.4854689,-60
2026-09-11 19:37:53.493,1789166273.4931612,-50
2026-09-11 19:37:53.500,1789166273.5008533,-41
2026-09-11 19:37:53.508,1789166273.5085456,-33
2026-09-11 19:37:53.516,1789166273.516238,-33
2026-09-11 19:37:53.523,1789166273.5233686,-31
2026-09-11 19:37:53.531,1789166273.531061,-21
2026-09-11 19:37:53.538,1789166273.5387533,-21
2026-09-11 19:37:53.546,1789166273.5464456,-29
2026-09-11 19:37:53.554,1789166273.554138,-31
2026-09-11 19:37:53.561,1789166273.56183,-29
2026-09-11 19:37:53.569,1789166273.5695224,-36
2026-09-11 19:37:53.577,1789166273.5772147,-48
2026-09-11 19:37:53.584,1789166273.584907,-46
2026-09-11 19:37:53.592,1789166273.5925994,-38
2026-09-11 19:37:53.600,1789166273.6002917,-33
2026-09-11 19:37:53.607,1789166273.607984,-16
2026-09-11 19:37:53.615,1789166273.6156764,9
2026-09-11 19:37:53.623,1789166273.6233685,26
2026-09-11 19:37:53.631,1789166273.6310608,19
2026-09-11 19:37:53.638,1789166273.6387532,4
2026-09-11 19:37:53.646,1789166273.6464455,-9
2026-09-11 19:37:53.654,1789166273.6541378,-24
2026-09-11 19:37:53.661,1789166273.6618302,-36
2026-09-11 19:37:53.669,1789166273.6695225,-41
2026-09-11 19:37:53.677,1789166273.6772149,-38
2026-09-11 19:37:53.684,1789166273.684907,-31
2026-09-11 19:37:53.692,1789166273.6925993,-26
2026-09-11 19:37:53.700,1789166273.7002916,-29
2026-09-11 19:37:53.707,1789166273.707984,-33
2026-09-11 19:37:53.715,1789166273.7156763,-33
2026-09-11 19:37:53.723,1789166273.7233686,4
2026-09-11 19:37:53.731,1789166273.731061,147
2026-09-11 19:37:53.738,1789166273.7387533,385
2026-09-11 19:37:53.746,1789166273.7464454,700
2026-09-11 19:37:53.754,1789166273.7541378,928
2026-09-11 19:37:53.761,1789166273.76183,533
2026-09-11 19:37:53.769,1789166273.7695224,-271
2026-09-11 19:37:53.777,1789166273.7772148,-419
2026-09-11 19:37:53.784,1789166273.784907,-60
2026-09-11 19:37:53.792,1789166273.7925994,-33
2026-09-11 19:37:53.800,1789166273.8002918,-143
2026-09-11 19:37:53.807,1789166273.8079839,-67
2026-09-11 19:37:53.815,1789166273.8156762,-31
2026-09-11 19:37:53.823,1789166273.8233685,-72
2026-09-11 19:37:53.831,1789166273.831061,-53
2026-09-11 19:37:53.838,1789166273.8387532,-21
2026-09-11 19:37:53.846,1789166273.8464456,-29
2026-09-11 19:37:53.854,1789166273.854138,-24
2026-09-11 19:37:53.861,1789166273.8618302,-4
2026-09-11 19:37:53.869,1789166273.8695223,2
2026-09-11 19:37:53.877,1789166273.8772147,4
2026-09-11 19:37:53.884,1789166273.884907,14
2026-09-11 19:37:53.892,1789166273.8925993,29
2026-09-11 19:37:53.900,1789166273.9002917,48
2026-09-11 19:37:53.907,1789166273.907984,67
2026-09-11 19:37:53.915,1789166273.9156764,75
2026-09-11 19:37:53.923,1789166273.9233687,77
2026-09-11 19:37:53.931,1789166273.9310608,82
2026-09-11 19:37:53.938,1789166273.9387531,89
2026-09-11 19:37:53.946,1789166273.9464455,99
2026-09-11 19:37:53.954,1789166273.9541378,97
2026-09-11 19:37:53.961,1789166273.9618301,89
2026-09-11 19:37:53.969,1789166273.9695225,82
2026-09-11 19:37:53.977,1789166273.9772148,75
2026-09-11 19:37:53.984,1789166273.9849072,65
2026-09-11 19:37:53.992,1789166273.9925992,50
2026-09-11 19:37:54.000,1789166274.0002916,24
2026-09-11 19:37:54.007,1789166274.007984,-4
2026-09-11 19:37:54.015,1789166274.0156763,-26
2026-09-11 19:37:54.023,1789166274.0233686,-38
2026-09-11 19:37:54.031,1789166274.031061,-50
2026-09-11 19:37:54.038,1789166274.0387533,-60
2026-09-11 19:37:54.046,1789166274.0464456,-63
2026-09-11 19:37:54.054,1789166274.054138,-58
2026-09-11 19:37:54.061,1789166274.06183,-53
2026-09-11 19:37:54.069,1789166274.0695224,-43
2026-09-11 19:37:54.077,1789166274.0772147,-36
2026-09-11 19:37:54.084,1789166274.084315,-33
2026-09-11 19:37:54.092,1789166274.0920074,-26
2026-09-11 19:37:54.099,1789166274.0996997,-21
2026-09-11 19:37:54.107,1789166274.107392,-19
2026-09-11 19:37:54.115,1789166274.1150844,-16
2026-09-11 19:37:54.122,1789166274.1227765,-19
2026-09-11 19:37:54.130,1789166274.1304688,-26
2026-09-11 19:37:54.138,1789166274.1381612,-29
2026-09-11 19:37:54.145,1789166274.1458535,-24
2026-09-11 19:37:54.153,1789166274.1535459,-26
2026-09-11 19:37:54.161,1789166274.1612382,-33
2026-09-11 19:37:54.168,1789166274.1689305,-33
2026-09-11 19:37:54.176,1789166274.1766229,-31
2026-09-11 19:37:54.184,1789166274.184315,-21
2026-09-11 19:37:54.192,1789166274.1920073,0
2026-09-11 19:37:54.199,1789166274.1996996,26
2026-09-11 19:37:54.207,1789166274.207392,38
2026-09-11 19:37:54.215,1789166274.2150843,33
2026-09-11 19:37:54.222,1789166274.2227767,21
2026-09-11 19:37:54.230,1789166274.230469,4
2026-09-11 19:37:54.238,1789166274.2381613,-9
2026-09-11 19:37:54.245,1789166274.2458534,-21
2026-09-11 19:37:54.253,1789166274.2535458,-24
2026-09-11 19:37:54.261,1789166274.261238,-24
2026-09-11 19:37:54.268,1789166274.2689304,-24
2026-09-11 19:37:54.276,1789166274.2766228,-21
2026-09-11 19:37:54.284,1789166274.284315,-19
2026-09-11 19:37:54.292,1789166274.2920074,-19
2026-09-11 19:37:54.299,1789166274.2996998,-26
2026-09-11 19:37:54.307,1789166274.307392,4
2026-09-11 19:37:54.315,1789166274.3150842,135
2026-09-11 19:37:54.322,1789166274.3227766,356
2026-09-11 19:37:54.330,1789166274.330469,659
2026-09-11 19:37:54.338,1789166274.3381612,882
2026-09-11 19:37:54.345,1789166274.3458536,509
2026-09-11 19:37:54.353,1789166274.353546,-242
2026-09-11 19:37:54.361,1789166274.3612382,-373
2026-09-11 19:37:54.368,1789166274.3689303,-43
2026-09-11 19:37:54.376,1789166274.3766227,-21
2026-09-11 19:37:54.384,1789166274.384315,-118
2026-09-11 19:37:54.392,1789166274.3920074,-53
2026-09-11 19:37:54.399,1789166274.3996997,-26
2026-09-11 19:37:54.407,1789166274.407392,-58
2026-09-11 19:37:54.415,1789166274.4150844,-36
2026-09-11 19:37:54.422,1789166274.4227767,-12
2026-09-11 19:37:54.430,1789166274.4304688,-14
2026-09-11 19:37:54.438,1789166274.4381611,-2
2026-09-11 19:37:54.445,1789166274.4458535,7
2026-09-11 19:37:54.453,1789166274.4535458,9
2026-09-11 19:37:54.461,1789166274.4612381,21
2026-09-11 19:37:54.468,1789166274.4689305,33
2026-09-11 19:37:54.476,1789166274.4766228,46
2026-09-11 19:37:54.484,1789166274.4843152,58
2026-09-11 19:37:54.492,1789166274.4920073,67
2026-09-11 19:37:54.499,1789166274.4996996,70
2026-09-11 19:37:54.507,1789166274.507392,84
2026-09-11 19:37:54.515,1789166274.5150843,106
2026-09-11 19:37:54.522,1789166274.5227766,113
2026-09-11 19:37:54.530,1789166274.530469,113
2026-09-11 19:37:54.538,1789166274.5381613,109
2026-09-11 19:37:54.545,1789166274.5458536,97
2026-09-11 19:37:54.553,1789166274.5535457,94
2026-09-11 19:37:54.561,1789166274.561238,97
2026-09-11 19:37:54.568,1789166274.5689304,84
2026-09-11 19:37:54.576,1789166274.5766227,65
2026-09-11 19:37:54.584,1789166274.584315,43
2026-09-11 19:37:54.592,1789166274.5920074,12
2026-09-11 19:37:54.599,1789166274.5996997,-14
2026-09-11 19:37:54.607,1789166274.607392,-33
2026-09-11 19:37:54.615,1789166274.6150844,-50
2026-09-11 19:37:54.622,1789166274.6227765,-63
2026-09-11 19:37:54.630,1789166274.6304688,-63
2026-09-11 19:37:54.638,1789166274.6381612,-60
2026-09-11 19:37:54.645,1789166274.6452916,-50
2026-09-11 19:37:54.652,1789166274.652984,-33
2026-09-11 19:37:54.660,1789166274.6606762,-33
2026-09-11 19:37:54.668,1789166274.6683686,-38
2026-09-11 19:37:54.676,1789166274.676061,-31
2026-09-11 19:37:54.683,1789166274.683753,-14
2026-09-11 19:37:54.691,1789166274.6914454,-19
2026-09-11 19:37:54.699,1789166274.6991377,-36
2026-09-11 19:37:54.706,1789166274.70683,-33
2026-09-11 19:37:54.714,1789166274.7145224,-21
2026-09-11 19:37:54.722,1789166274.7222147,-19
2026-09-11 19:37:54.729,1789166274.729907,-26
2026-09-11 19:37:54.737,1789166274.7375994,-36
2026-09-11 19:37:54.745,1789166274.7452915,-43
2026-09-11 19:37:54.752,1789166274.7529838,-38
2026-09-11 19:37:54.760,1789166274.7606761,-36
2026-09-11 19:37:54.768,1789166274.7683685,-26
2026-09-11 19:37:54.776,1789166274.7760608,-2
2026-09-11 19:37:54.783,1789166274.7837532,21
2026-09-11 19:37:54.791,1789166274.7914455,33
2026-09-11 19:37:54.799,1789166274.7991378,26
2026-09-11 19:37:54.806,1789166274.80683,12
2026-09-11 19:37:54.814,1789166274.8145223,-7
2026-09-11 19:37:54.822,1789166274.8222146,-31
2026-09-11 19:37:54.829,1789166274.829907,-36
2026-09-11 19:37:54.837,1789166274.8375993,-21
2026-09-11 19:37:54.845,1789166274.8452916,-21
2026-09-11 19:37:54.852,1789166274.852984,-29
2026-09-11 19:37:54.860,1789166274.8606763,-29
2026-09-11 19:37:54.868,1789166274.8683684,-29
2026-09-11 19:37:54.876,1789166274.8760607,-36
2026-09-11 19:37:54.883,1789166274.883753,-33
2026-09-11 19:37:54.891,1789166274.8914454,2
2026-09-11 19:37:54.899,1789166274.8991377,162
2026-09-11 19:37:54.906,1789166274.90683,460
2026-09-11 19:37:54.914,1789166274.9145224,780
2026-09-11 19:37:54.922,1789166274.9222147,836
2026-09-11 19:37:54.929,1789166274.9299068,278
2026-09-11 19:37:54.937,1789166274.9375992,-436
2026-09-11 19:37:54.945,1789166274.9452915,-412
2026-09-11 19:37:54.952,1789166274.9529839,-46
2026-09-11 19:37:54.960,1789166274.9606762,-55
2026-09-11 19:37:54.968,1789166274.9683685,-121
2026-09-11 19:37:54.976,1789166274.9760609,-33
2026-09-11 19:37:54.983,1789166274.9837532,-21
2026-09-11 19:37:54.991,1789166274.9914453,-53
2026-09-11 19:37:54.999,1789166274.9991376,-19
2026-09-11 19:37:55.006,1789166275.00683,0
2026-09-11 19:37:55.014,1789166275.0145223,-9
2026-09-11 19:37:55.022,1789166275.0222147,4
2026-09-11 19:37:55.029,1789166275.029907,26
2026-09-11 19:37:55.037,1789166275.0375993,29
2026-09-11 19:37:55.045,1789166275.0452917,36
2026-09-11 19:37:55.052,1789166275.0529838,58
2026-09-11 19:37:55.060,1789166275.060676,58
2026-09-11 19:37:55.068,1789166275.0683684,60
2026-09-11 19:37:55.076,1789166275.0760608,99
2026-09-11 19:37:55.083,1789166275.083753,135
2026-09-11 19:37:55.091,1789166275.0914454,133
2026-09-11 19:37:55.099,1789166275.0991378,128
2026-09-11 19:37:55.106,1789166275.1068301,150
2026-09-11 19:37:55.114,1789166275.1145222,167
2026-09-11 19:37:55.122,1789166275.1222146,169
2026-09-11 19:37:55.129,1789166275.129907,169
2026-09-11 19:37:55.137,1789166275.1375992,172
2026-09-11 19:37:55.145,1789166275.1452916,162
2026-09-11 19:37:55.152,1789166275.152984,143
2026-09-11 19:37:55.160,1789166275.1606762,116
2026-09-11 19:37:55.168,1789166275.1683686,70
2026-09-11 19:37:55.176,1789166275.176061,9
2026-09-11 19:37:55.183,1789166275.183753,-29
2026-09-11 19:37:55.191,1789166275.1914454,-50
2026-09-11 19:37:55.199,1789166275.1991377,-65
2026-09-11 19:37:55.206,1789166275.2062685,-75
2026-09-11 19:37:55.213,1789166275.213961,-97
2026-09-11 19:37:55.221,1789166275.2216532,-109
2026-09-11 19:37:55.229,1789166275.2293456,-94
2026-09-11 19:37:55.237,1789166275.237038,-80
2026-09-11 19:37:55.244,1789166275.24473,-60
2026-09-11 19:37:55.252,1789166275.2524223,-36
2026-09-11 19:37:55.260,1789166275.2601147,-36
2026-09-11 19:37:55.267,1789166275.267807,-43
2026-09-11 19:37:55.275,1789166275.2754993,-31
2026-09-11 19:37:55.283,1789166275.2831917,-26
2026-09-11 19:37:55.290,1789166275.290884,-41
2026-09-11 19:37:55.298,1789166275.2985764,-36
2026-09-11 19:37:55.306,1789166275.3062685,-33
2026-09-11 19:37:55.313,1789166275.3139608,-38
2026-09-11 19:37:55.321,1789166275.3216531,-29
2026-09-11 19:37:55.329,1789166275.3293455,-24
2026-09-11 19:37:55.337,1789166275.3370378,-36
2026-09-11 19:37:55.344,1789166275.3447301,-31
2026-09-11 19:37:55.352,1789166275.3524225,-2
2026-09-11 19:37:55.360,1789166275.3601148,26
2026-09-11 19:37:55.367,1789166275.367807,14
2026-09-11 19:37:55.375,1789166275.3754992,-9
2026-09-11 19:37:55.383,1789166275.3831916,-16
2026-09-11 19:37:55.390,1789166275.390884,-29
2026-09-11 19:37:55.398,1789166275.3985763,-46
2026-09-11 19:37:55.406,1789166275.4062686,-48
2026-09-11 19:37:55.413,1789166275.413961,-43
2026-09-11 19:37:55.421,1789166275.4216533,-41
2026-09-11 19:37:55.429,1789166275.4293454,-31
2026-09-11 19:37:55.437,1789166275.4370377,-19
2026-09-11 19:37:55.444,1789166275.44473,-24
2026-09-11 19:37:55.452,1789166275.4524224,-38
2026-09-11 19:37:55.460,1789166275.4601147,-21
2026-09-11 19:37:55.467,1789166275.467807,111
2026-09-11 19:37:55.475,1789166275.4754994,419
2026-09-11 19:37:55.483,1789166275.4831917,793
2026-09-11 19:37:55.490,1789166275.4908838,940
2026-09-11 19:37:55.498,1789166275.4985762,468
2026-09-11 19:37:55.506,1789166275.5062685,-351
2026-09-11 19:37:55.513,1789166275.5139608,-499
2026-09-11 19:37:55.521,1789166275.5216532,-94
2026-09-11 19:37:55.529,1789166275.5293455,-29
2026-09-11 19:37:55.537,1789166275.5370378,-135
2026-09-11 19:37:55.544,1789166275.5447302,-55
2026-09-11 19:37:55.552,1789166275.5524223,-14
2026-09-11 19:37:55.560,1789166275.5601146,-50
2026-09-11 19:37:55.567,1789166275.567807,-29
2026-09-11 19:37:55.575,1789166275.5754993,-2
2026-09-11 19:37:55.583,1789166275.5831916,-9
2026-09-11 19:37:55.590,1789166275.590884,4
2026-09-11 19:37:55.598,1789166275.5985763,24
2026-09-11 19:37:55.606,1789166275.6062686,29
2026-09-11 19:37:55.613,1789166275.6139607,38
2026-09-11 19:37:55.621,1789166275.621653,58
2026-09-11 19:37:55.629,1789166275.6293454,72
2026-09-11 19:37:55.637,1789166275.6370378,84
2026-09-11 19:37:55.644,1789166275.64473,104
2026-09-11 19:37:55.652,1789166275.6524224,128
2026-09-11 19:37:55.660,1789166275.6601148,145
2026-09-11 19:37:55.667,1789166275.667807,152
2026-09-11 19:37:55.675,1789166275.6754992,162
2026-09-11 19:37:55.683,1789166275.6831915,172
2026-09-11 19:37:55.690,1789166275.6908839,169
2026-09-11 19:37:55.698,1789166275.6985762,160
2026-09-11 19:37:55.706,1789166275.7062685,160
2026-09-11 19:37:55.713,1789166275.713961,160
2026-09-11 19:37:55.721,1789166275.7216532,135
2026-09-11 19:37:55.729,1789166275.7293456,99
2026-09-11 19:37:55.737,1789166275.737038,60
2026-09-11 19:37:55.744,1789166275.74473,16
2026-09-11 19:37:55.752,1789166275.7524223,-19
2026-09-11 19:37:55.760,1789166275.7601147,-43
2026-09-11 19:37:55.767,1789166275.7672453,-63
2026-09-11 19:37:55.774,1789166275.7749376,-75
2026-09-11 19:37:55.782,1789166275.78263,-82
2026-09-11 19:37:55.790,1789166275.7903223,-77
2026-09-11 19:37:55.798,1789166275.7980146,-65
2026-09-11 19:37:55.805,1789166275.8057067,-58
2026-09-11 19:37:55.813,1789166275.813399,-53
2026-09-11 19:37:55.821,1789166275.8210914,-43
2026-09-11 19:37:55.828,1789166275.8287838,-33
2026-09-11 19:37:55.836,1789166275.836476,-26
2026-09-11 19:37:55.844,1789166275.8441684,-16
2026-09-11 19:37:55.851,1789166275.8518608,-14
2026-09-11 19:37:55.859,1789166275.859553,-14
2026-09-11 19:37:55.867,1789166275.8672452,-12
2026-09-11 19:37:55.874,1789166275.8749375,-9
2026-09-11 19:37:55.882,1789166275.8826299,-19
2026-09-11 19:37:55.890,1789166275.8903222,-26
2026-09-11 19:37:55.898,1789166275.8980145,-21
2026-09-11 19:37:55.905,1789166275.905707,-19
2026-09-11 19:37:55.913,1789166275.9133992,-16
2026-09-11 19:37:55.921,1789166275.9210916,-7
2026-09-11 19:37:55.928,1789166275.9287837,14
2026-09-11 19:37:55.936,1789166275.936476,31
2026-09-11 19:37:55.944,1789166275.9441683,31
2026-09-11 19:37:55.951,1789166275.9518607,16
2026-09-11 19:37:55.959,1789166275.959553,-4
2026-09-11 19:37:55.967,1789166275.9672453,-21
2026-09-11 19:37:55.974,1789166275.9749377,-29
2026-09-11 19:37:55.982,1789166275.98263,-26
2026-09-11 19:37:55.990,1789166275.990322,-24
2026-09-11 19:37:55.998,1789166275.9980145,-21
2026-09-11 19:37:56.005,1789166276.0057068,-19
2026-09-11 19:37:56.013,1789166276.0133991,-19
2026-09-11 19:37:56.021,1789166276.0210915,-16
2026-09-11 19:37:56.028,1789166276.0287838,-16
2026-09-11 19:37:56.036,1789166276.0364761,43
2026-09-11 19:37:56.044,1789166276.0441685,244
2026-09-11 19:37:56.051,1789166276.0518606,562
2026-09-11 19:37:56.059,1789166276.059553,890
2026-09-11 19:37:56.067,1789166276.0672452,892
2026-09-11 19:37:56.074,1789166276.0749376,223
2026-09-11 19:37:56.082,1789166276.08263,-436
2026-09-11 19:37:56.090,1789166276.0903223,-295
2026-09-11 19:37:56.098,1789166276.0980146,2
2026-09-11 19:37:56.105,1789166276.105707,-82
2026-09-11 19:37:56.113,1789166276.113399,-128
2026-09-11 19:37:56.121,1789166276.1210914,-43
2026-09-11 19:37:56.128,1789166276.1287837,-50
2026-09-11 19:37:56.136,1789166276.136476,-72
2026-09-11 19:37:56.144,1789166276.1441684,-41
2026-09-11 19:37:56.151,1789166276.1518607,-31
2026-09-11 19:37:56.159,1789166276.159553,-36
2026-09-11 19:37:56.167,1789166276.1672454,-19
2026-09-11 19:37:56.174,1789166276.1749375,-7
2026-09-11 19:37:56.182,1789166276.1826298,0
2026-09-11 19:37:56.190,1789166276.1903222,14
2026-09-11 19:37:56.198,1789166276.1980145,24
2026-09-11 19:37:56.205,1789166276.2057068,29
2026-09-11 19:37:56.213,1789166276.2133992,43
2026-09-11 19:37:56.221,1789166276.2210915,60
2026-09-11 19:37:56.228,1789166276.2287838,70
2026-09-11 19:37:56.236,1789166276.236476,82
2026-09-11 19:37:56.244,1789166276.2441683,101
2026-09-11 19:37:56.251,1789166276.2518606,104
2026-09-11 19:37:56.259,1789166276.259553,97
2026-09-11 19:37:56.267,1789166276.2672453,97
2026-09-11 19:37:56.274,1789166276.2749376,101
2026-09-11 19:37:56.282,1789166276.28263,92
2026-09-11 19:37:56.290,1789166276.2903223,75
2026-09-11 19:37:56.298,1789166276.2980146,60
2026-09-11 19:37:56.305,1789166276.3057067,36
2026-09-11 19:37:56.313,1789166276.313399,2
2026-09-11 19:37:56.321,1789166276.3210914,-29
2026-09-11 19:37:56.328,1789166276.328222,-50
2026-09-11 19:37:56.335,1789166276.3359144,-70
2026-09-11 19:37:56.343,1789166276.3436067,-84
2026-09-11 19:37:56.351,1789166276.351299,-87
2026-09-11 19:37:56.358,1789166276.3589914,-84
2026-09-11 19:37:56.366,1789166276.3666835,-77
2026-09-11 19:37:56.374,1789166276.3743758,-65
2026-09-11 19:37:56.382,1789166276.3820682,-55
2026-09-11 19:37:56.389,1789166276.3897605,-46
2026-09-11 19:37:56.397,1789166276.3974528,-38
2026-09-11 19:37:56.405,1789166276.4051452,-33
2026-09-11 19:37:56.412,1789166276.4128375,-31
2026-09-11 19:37:56.420,1789166276.4205298,-31
2026-09-11 19:37:56.428,1789166276.428222,-31
2026-09-11 19:37:56.435,1789166276.4359143,-29
2026-09-11 19:37:56.443,1789166276.4436066,-29
2026-09-11 19:37:56.451,1789166276.451299,-31
2026-09-11 19:37:56.458,1789166276.4589913,-38
2026-09-11 19:37:56.466,1789166276.4666836,-48
2026-09-11 19:37:56.474,1789166276.474376,-46
2026-09-11 19:37:56.482,1789166276.4820683,-36
2026-09-11 19:37:56.489,1789166276.4897604,-26
2026-09-11 19:37:56.497,1789166276.4974527,-7
2026-09-11 19:37:56.505,1789166276.505145,12
2026-09-11 19:37:56.512,1789166276.5128374,21
2026-09-11 19:37:56.520,1789166276.5205297,19
2026-09-11 19:37:56.528,1789166276.528222,7
2026-09-11 19:37:56.535,1789166276.5359144,-12
2026-09-11 19:37:56.543,1789166276.5436068,-26
2026-09-11 19:37:56.551,1789166276.5512989,-36
2026-09-11 19:37:56.558,1789166276.5589912,-38
2026-09-11 19:37:56.566,1789166276.5666835,-36
2026-09-11 19:37:56.574,1789166276.5743759,-29
2026-09-11 19:37:56.582,1789166276.5820682,-26
2026-09-11 19:37:56.589,1789166276.5897605,-26
2026-09-11 19:37:56.597,1789166276.5974529,-31
2026-09-11 19:37:56.605,1789166276.6051452,-26
2026-09-11 19:37:56.612,1789166276.6128373,38
2026-09-11 19:37:56.620,1789166276.6205297,213
2026-09-11 19:37:56.628,1789166276.628222,477
2026-09-11 19:37:56.635,1789166276.6359143,812
2026-09-11 19:37:56.643,1789166276.6436067,906
2026-09-11 19:37:56.651,1789166276.651299,286
2026-09-11 19:37:56.658,1789166276.6589913,-419
2026-09-11 19:37:56.666,1789166276.6666837,-315
2026-09-11 19:37:56.674,1789166276.6743758,4
2026-09-11 19:37:56.682,1789166276.682068,-72
2026-09-11 19:37:56.689,1789166276.6897604,-133
2026-09-11 19:37:56.697,1789166276.6974528,-43
2026-09-11 19:37:56.705,1789166276.7051451,-41
2026-09-11 19:37:56.712,1789166276.7128375,-65
2026-09-11 19:37:56.720,1789166276.7205298,-33
2026-09-11 19:37:56.728,1789166276.7282221,-19
2026-09-11 19:37:56.735,1789166276.7359142,-24
2026-09-11 19:37:56.743,1789166276.7436066,-9
2026-09-11 19:37:56.751,1789166276.751299,4
2026-09-11 19:37:56.758,1789166276.7589912,9
2026-09-11 19:37:56.766,1789166276.7666836,19
2026-09-11 19:37:56.774,1789166276.774376,29
2026-09-11 19:37:56.782,1789166276.7820683,38
2026-09-11 19:37:56.789,1789166276.7897606,53
2026-09-11 19:37:56.797,1789166276.7974527,65
2026-09-11 19:37:56.805,1789166276.805145,75
2026-09-11 19:37:56.812,1789166276.8128374,87
2026-09-11 19:37:56.820,1789166276.8205297,99
2026-09-11 19:37:56.828,1789166276.828222,104
2026-09-11 19:37:56.835,1789166276.8359144,104
2026-09-11 19:37:56.843,1789166276.8436067,101
2026-09-11 19:37:56.851,1789166276.851299,97
2026-09-11 19:37:56.858,1789166276.8589914,84
2026-09-11 19:37:56.866,1789166276.8666835,75
2026-09-11 19:37:56.874,1789166276.8743758,65
2026-09-11 19:37:56.882,1789166276.8820682,48
2026-09-11 19:37:56.889,1789166276.889199,24
2026-09-11 19:37:56.896,1789166276.8968914,-2
2026-09-11 19:37:56.904,1789166276.9045837,-21
2026-09-11 19:37:56.912,1789166276.912276,-36
2026-09-11 19:37:56.919,1789166276.9199684,-46
2026-09-11 19:37:56.927,1789166276.9276605,-50
2026-09-11 19:37:56.935,1789166276.9353528,-46
2026-09-11 19:37:56.943,1789166276.9430451,-38
2026-09-11 19:37:56.950,1789166276.9507375,-33
2026-09-11 19:37:56.958,1789166276.9584298,-29
2026-09-11 19:37:56.966,1789166276.9661222,-19
2026-09-11 19:37:56.973,1789166276.9738145,-9
2026-09-11 19:37:56.981,1789166276.9815068,-9
2026-09-11 19:37:56.989,1789166276.989199,-7
2026-09-11 19:37:56.996,1789166276.9968913,-4
2026-09-11 19:37:57.004,1789166277.0045836,-2
2026-09-11 19:37:57.012,1789166277.012276,0
2026-09-11 19:37:57.019,1789166277.0199683,-2
2026-09-11 19:37:57.027,1789166277.0276606,-2
2026-09-11 19:37:57.035,1789166277.035353,-2
2026-09-11 19:37:57.043,1789166277.0430453,-4
2026-09-11 19:37:57.050,1789166277.0507374,-12
2026-09-11 19:37:57.058,1789166277.0584297,-19
2026-09-11 19:37:57.066,1789166277.066122,-14
2026-09-11 19:37:57.073,1789166277.0738144,-4
2026-09-11 19:37:57.081,1789166277.0815067,9
2026-09-11 19:37:57.089,1789166277.089199,29
2026-09-11 19:37:57.096,1789166277.0968914,50
2026-09-11 19:37:57.104,1789166277.1045837,55
2026-09-11 19:37:57.112,1789166277.1122758,46
2026-09-11 19:37:57.119,1789166277.1199682,29
2026-09-11 19:37:57.127,1789166277.1276605,12
2026-09-11 19:37:57.135,1789166277.1353528,0
2026-09-11 19:37:57.143,1789166277.1430452,-7
2026-09-11 19:37:57.150,1789166277.1507375,-14
2026-09-11 19:37:57.158,1789166277.1584299,-9
2026-09-11 19:37:57.166,1789166277.1661222,-2
2026-09-11 19:37:57.173,1789166277.1738143,-4
2026-09-11 19:37:57.181,1789166277.1815066,-4
2026-09-11 19:37:57.189,1789166277.189199,-4
2026-09-11 19:37:57.196,1789166277.1968913,7
2026-09-11 19:37:57.204,1789166277.2045836,99
2026-09-11 19:37:57.212,1789166277.212276,305
2026-09-11 19:37:57.219,1789166277.2199683,594
2026-09-11 19:37:57.227,1789166277.2276607,892
2026-09-11 19:37:57.235,1789166277.2353528,732
2026-09-11 19:37:57.243,1789166277.243045,-38
2026-09-11 19:37:57.250,1789166277.2507374,-443
2026-09-11 19:37:57.258,1789166277.2584298,-138
2026-09-11 19:37:57.266,1789166277.266122,12
2026-09-11 19:37:57.273,1789166277.2738144,-118
2026-09-11 19:37:57.281,1789166277.2815068,-92
2026-09-11 19:37:57.289,1789166277.289199,-21
2026-09-11 19:37:57.296,1789166277.2968912,-48
2026-09-11 19:37:57.304,1789166277.3045835,-48
2026-09-11 19:37:57.312,1789166277.312276,-19
2026-09-11 19:37:57.319,1789166277.3199682,-21
2026-09-11 19:37:57.327,1789166277.3276606,-16
2026-09-11 19:37:57.335,1789166277.335353,-7
2026-09-11 19:37:57.343,1789166277.3430452,-7
2026-09-11 19:37:57.350,1789166277.3507376,4
2026-09-11 19:37:57.358,1789166277.3584297,19
2026-09-11 19:37:57.366,1789166277.366122,24
2026-09-11 19:37:57.373,1789166277.3738143,33
2026-09-11 19:37:57.381,1789166277.3815067,46
2026-09-11 19:37:57.389,1789166277.389199,65
2026-09-11 19:37:57.396,1789166277.3968914,80
2026-09-11 19:37:57.404,1789166277.4045837,72
2026-09-11 19:37:57.412,1789166277.412276,75
2026-09-11 19:37:57.419,1789166277.4199684,97
2026-09-11 19:37:57.427,1789166277.4276605,101
2026-09-11 19:37:57.435,1789166277.4353528,89
2026-09-11 19:37:57.443,1789166277.4430451,89
2026-09-11 19:37:57.450,1789166277.4501755,87
2026-09-11 19:37:57.457,1789166277.4578679,75
2026-09-11 19:37:57.465,1789166277.4655602,50
2026-09-11 19:37:57.473,1789166277.4732525,19
2026-09-11 19:37:57.480,1789166277.4809449,-12
2026-09-11 19:37:57.488,1789166277.488637,-33
2026-09-11 19:37:57.496,1789166277.4963293,-53
2026-09-11 19:37:57.504,1789166277.5040216,-72
2026-09-11 19:37:57.511,1789166277.511714,-89
2026-09-11 19:37:57.519,1789166277.5194063,-92
2026-09-11 19:37:57.527,1789166277.5270987,-82
2026-09-11 19:37:57.534,1789166277.534791,-67
2026-09-11 19:37:57.542,1789166277.5424833,-55
2026-09-11 19:37:57.550,1789166277.5501754,-55
2026-09-11 19:37:57.557,1789166277.5578678,-50
2026-09-11 19:37:57.565,1789166277.56556,-43
2026-09-11 19:37:57.573,1789166277.5732524,-48
2026-09-11 19:37:57.580,1789166277.5809448,-48
2026-09-11 19:37:57.588,1789166277.588637,-36
2026-09-11 19:37:57.596,1789166277.5963295,-33
2026-09-11 19:37:57.604,1789166277.6040218,-41
2026-09-11 19:37:57.611,1789166277.611714,-46
2026-09-11 19:37:57.619,1789166277.6194062,-41
2026-09-11 19:37:57.627,1789166277.6270986,-36
2026-09-11 19:37:57.634,1789166277.634791,-38
2026-09-11 19:37:57.642,1789166277.6424832,-48
2026-09-11 19:37:57.650,1789166277.6501756,-50
2026-09-11 19:37:57.657,1789166277.657868,-43
2026-09-11 19:37:57.665,1789166277.6655602,-36
2026-09-11 19:37:57.673,1789166277.6732523,-19
2026-09-11 19:37:57.680,1789166277.6809447,4
2026-09-11 19:37:57.688,1789166277.688637,21
2026-09-11 19:37:57.696,1789166277.6963294,24
2026-09-11 19:37:57.704,1789166277.7040217,9
2026-09-11 19:37:57.711,1789166277.711714,-21
2026-09-11 19:37:57.719,1789166277.7194064,-46
2026-09-11 19:37:57.727,1789166277.7270987,-46
2026-09-11 19:37:57.734,1789166277.7347908,-33
2026-09-11 19:37:57.742,1789166277.7424831,-38
2026-09-11 19:37:57.750,1789166277.7501755,-50
2026-09-11 19:37:57.757,1789166277.7578678,-36
2026-09-11 19:37:57.765,1789166277.7655602,-12
2026-09-11 19:37:57.773,1789166277.7732525,-26
2026-09-11 19:37:57.780,1789166277.7809448,-48
2026-09-11 19:37:57.788,1789166277.7886372,-21
2026-09-11 19:37:57.796,1789166277.7963293,113
2026-09-11 19:37:57.804,1789166277.8040216,407
2026-09-11 19:37:57.811,1789166277.811714,773
2026-09-11 19:37:57.819,1789166277.8194063,919
2026-09-11 19:37:57.827,1789166277.8270986,419
2026-09-11 19:37:57.834,1789166277.834791,-388
2026-09-11 19:37:57.842,1789166277.8424833,-489
2026-09-11 19:37:57.850,1789166277.8501756,-87
2026-09-11 19:37:57.857,1789166277.8578677,-43
2026-09-11 19:37:57.865,1789166277.86556,-143
2026-09-11 19:37:57.873,1789166277.8732524,-63
2026-09-11 19:37:57.880,1789166277.8809447,-24
2026-09-11 19:37:57.888,1789166277.888637,-55
2026-09-11 19:37:57.896,1789166277.8963294,-41
2026-09-11 19:37:57.904,1789166277.9040217,-19
2026-09-11 19:37:57.911,1789166277.911714,-12
2026-09-11 19:37:57.919,1789166277.9194062,0
2026-09-11 19:37:57.927,1789166277.9270985,9
2026-09-11 19:37:57.934,1789166277.9347908,24
2026-09-11 19:37:57.942,1789166277.9424832,33
2026-09-11 19:37:57.950,1789166277.9501755,31
2026-09-11 19:37:57.957,1789166277.9578679,60
2026-09-11 19:37:57.965,1789166277.9655602,84
2026-09-11 19:37:57.973,1789166277.9732525,80
2026-09-11 19:37:57.980,1789166277.9809449,94
2026-09-11 19:37:57.988,1789166277.988637,138
2026-09-11 19:37:57.996,1789166277.9963293,147
2026-09-11 19:37:58.004,1789166278.0040216,140
2026-09-11 19:37:58.011,1789166278.0111525,162
2026-09-11 19:37:58.018,1789166278.0188448,174
2026-09-11 19:37:58.026,1789166278.0265372,160
2026-09-11 19:37:58.034,1789166278.0342295,155
2026-09-11 19:37:58.041,1789166278.0419219,152
2026-09-11 19:37:58.049,1789166278.049614,128
2026-09-11 19:37:58.057,1789166278.0573063,84
2026-09-11 19:37:58.064,1789166278.0649986,43
2026-09-11 19:37:58.072,1789166278.072691,14
2026-09-11 19:37:58.080,1789166278.0803833,-21
2026-09-11 19:37:58.088,1789166278.0880756,-43
2026-09-11 19:37:58.095,1789166278.095768,-67
2026-09-11 19:37:58.103,1789166278.1034603,-111
2026-09-11 19:37:58.111,1789166278.1111524,-113
2026-09-11 19:37:58.118,1789166278.1188447,-80
2026-09-11 19:37:58.126,1789166278.126537,-84
2026-09-11 19:37:58.134,1789166278.1342294,-84
2026-09-11 19:37:58.141,1789166278.1419218,-48
2026-09-11 19:37:58.149,1789166278.149614,-38
2026-09-11 19:37:58.157,1789166278.1573064,-53
2026-09-11 19:37:58.164,1789166278.1649988,-43
2026-09-11 19:37:58.172,1789166278.1726909,-26
2026-09-11 19:37:58.180,1789166278.1803832,-26
2026-09-11 19:37:58.188,1789166278.1880755,-26
2026-09-11 19:37:58.195,1789166278.1957679,-19
2026-09-11 19:37:58.203,1789166278.2034602,-7
2026-09-11 19:37:58.211,1789166278.2111526,-16
2026-09-11 19:37:58.218,1789166278.218845,-46
2026-09-11 19:37:58.226,1789166278.2265372,-41
2026-09-11 19:37:58.234,1789166278.2342293,-24
2026-09-11 19:37:58.241,1789166278.2419217,-31
2026-09-11 19:37:58.249,1789166278.249614,-26
2026-09-11 19:37:58.257,1789166278.2573063,-2
2026-09-11 19:37:58.264,1789166278.2649987,4
2026-09-11 19:37:58.272,1789166278.272691,2
2026-09-11 19:37:58.280,1789166278.2803833,7
2026-09-11 19:37:58.288,1789166278.2880757,0
2026-09-11 19:37:58.295,1789166278.2957678,-19
2026-09-11 19:37:58.303,1789166278.3034601,-33
2026-09-11 19:37:58.311,1789166278.3111525,-46
2026-09-11 19:37:58.318,1789166278.3188448,-50
2026-09-11 19:37:58.326,1789166278.3265371,-38
2026-09-11 19:37:58.334,1789166278.3342295,-31
2026-09-11 19:37:58.341,1789166278.3419218,-33
2026-09-11 19:37:58.349,1789166278.3496141,-38
2026-09-11 19:37:58.357,1789166278.3573062,-33
2026-09-11 19:37:58.364,1789166278.3649986,-19
2026-09-11 19:37:58.372,1789166278.372691,48
2026-09-11 19:37:58.380,1789166278.3803833,295
2026-09-11 19:37:58.388,1789166278.3880756,666
2026-09-11 19:37:58.395,1789166278.395768,906
2026-09-11 19:37:58.403,1789166278.4034603,683
2026-09-11 19:37:58.411,1789166278.4111526,-80
2026-09-11 19:37:58.418,1789166278.4188447,-548
2026-09-11 19:37:58.426,1789166278.426537,-237
2026-09-11 19:37:58.434,1789166278.4342294,9
2026-09-11 19:37:58.441,1789166278.4419217,-113
2026-09-11 19:37:58.449,1789166278.449614,-116
2026-09-11 19:37:58.457,1789166278.4573064,-29
2026-09-11 19:37:58.464,1789166278.4649987,-50
2026-09-11 19:37:58.472,1789166278.472691,-65
2026-09-11 19:37:58.480,1789166278.4803832,-26
2026-09-11 19:37:58.488,1789166278.4880755,-12
2026-09-11 19:37:58.495,1789166278.4957678,-9
2026-09-11 19:37:58.503,1789166278.5034602,4
2026-09-11 19:37:58.511,1789166278.5111525,9
2026-09-11 19:37:58.518,1789166278.5188448,19
2026-09-11 19:37:58.526,1789166278.5265372,38
2026-09-11 19:37:58.534,1789166278.5342295,46
2026-09-11 19:37:58.541,1789166278.5419219,60
2026-09-11 19:37:58.549,1789166278.549614,84
2026-09-11 19:37:58.557,1789166278.5573063,92
2026-09-11 19:37:58.564,1789166278.5649986,106
2026-09-11 19:37:58.572,1789166278.5721292,128
2026-09-11 19:37:58.579,1789166278.5798216,145
2026-09-11 19:37:58.587,1789166278.587514,157
2026-09-11 19:37:58.595,1789166278.5952063,160
2026-09-11 19:37:58.602,1789166278.6028986,152
2026-09-11 19:37:58.610,1789166278.6105907,147
2026-09-11 19:37:58.618,1789166278.618283,140
2026-09-11 19:37:58.625,1789166278.6259754,121
2026-09-11 19:37:58.633,1789166278.6336677,92
2026-09-11 19:37:58.641,1789166278.64136,58
2026-09-11 19:37:58.649,1789166278.6490524,21
2026-09-11 19:37:58.656,1789166278.6567447,-14
2026-09-11 19:37:58.664,1789166278.664437,-48
2026-09-11 19:37:58.672,1789166278.6721292,-70
2026-09-11 19:37:58.679,1789166278.6798215,-89
2026-09-11 19:37:58.687,1789166278.6875138,-94
2026-09-11 19:37:58.695,1789166278.6952062,-82
2026-09-11 19:37:58.702,1789166278.7028985,-75
2026-09-11 19:37:58.710,1789166278.7105908,-75
2026-09-11 19:37:58.718,1789166278.7182832,-60
2026-09-11 19:37:58.725,1789166278.7259755,-48
2026-09-11 19:37:58.733,1789166278.7336676,-46
2026-09-11 19:37:58.741,1789166278.74136,-41
2026-09-11 19:37:58.749,1789166278.7490523,-29
2026-09-11 19:37:58.756,1789166278.7567446,-24
2026-09-11 19:37:58.764,1789166278.764437,-26
2026-09-11 19:37:58.772,1789166278.7721293,-19
2026-09-11 19:37:58.779,1789166278.7798216,-9
2026-09-11 19:37:58.787,1789166278.787514,-16
2026-09-11 19:37:58.795,1789166278.795206,-24
2026-09-11 19:37:58.802,1789166278.8028984,-29
2026-09-11 19:37:58.810,1789166278.8105907,-29
2026-09-11 19:37:58.818,1789166278.818283,-29
2026-09-11 19:37:58.825,1789166278.8259754,-24
2026-09-11 19:37:58.833,1789166278.8336678,-12
2026-09-11 19:37:58.841,1789166278.84136,4
2026-09-11 19:37:58.849,1789166278.8490524,19
2026-09-11 19:37:58.856,1789166278.8567445,24
2026-09-11 19:37:58.864,1789166278.8644369,14
2026-09-11 19:37:58.872,1789166278.8721292,-4
2026-09-11 19:37:58.879,1789166278.8798215,-26
2026-09-11 19:37:58.887,1789166278.8875139,-33
2026-09-11 19:37:58.895,1789166278.8952062,-29
2026-09-11 19:37:58.902,1789166278.9028986,-26
2026-09-11 19:37:58.910,1789166278.910591,-26
2026-09-11 19:37:58.918,1789166278.918283,-24
2026-09-11 19:37:58.925,1789166278.9259753,-19
2026-09-11 19:37:58.933,1789166278.9336677,-24
2026-09-11 19:37:58.941,1789166278.94136,-29
2026-09-11 19:37:58.949,1789166278.9490523,9
2026-09-11 19:37:58.956,1789166278.9567447,169
2026-09-11 19:37:58.964,1789166278.964437,470
2026-09-11 19:37:58.972,1789166278.9721293,817
2026-09-11 19:37:58.979,1789166278.9798214,933
2026-09-11 19:37:58.987,1789166278.9875138,414
2026-09-11 19:37:58.995,1789166278.995206,-339
2026-09-11 19:37:59.002,1789166279.0028985,-388
2026-09-11 19:37:59.010,1789166279.0105908,-36
2026-09-11 19:37:59.018,1789166279.0182831,-50
2026-09-11 19:37:59.025,1789166279.0259755,-147
2026-09-11 19:37:59.033,1789166279.0336678,-60
2026-09-11 19:37:59.041,1789166279.04136,-38
2026-09-11 19:37:59.049,1789166279.0490522,-80
2026-09-11 19:37:59.056,1789166279.0567446,-53
2026-09-11 19:37:59.064,1789166279.064437,-26
2026-09-11 19:37:59.072,1789166279.0721292,-29
2026-09-11 19:37:59.079,1789166279.0798216,-16
2026-09-11 19:37:59.087,1789166279.087514,-4
2026-09-11 19:37:59.095,1789166279.0952063,-7
2026-09-11 19:37:59.102,1789166279.1028986,4
2026-09-11 19:37:59.110,1789166279.1105907,19
2026-09-11 19:37:59.118,1789166279.118283,26
2026-09-11 19:37:59.125,1789166279.1259754,36
2026-09-11 19:37:59.133,1789166279.133106,50
2026-09-11 19:37:59.140,1789166279.1407983,65
2026-09-11 19:37:59.148,1789166279.1484907,75
2026-09-11 19:37:59.156,1789166279.156183,77
2026-09-11 19:37:59.163,1789166279.1638753,87
2026-09-11 19:37:59.171,1789166279.1715674,94
2026-09-11 19:37:59.179,1789166279.1792598,92
2026-09-11 19:37:59.186,1789166279.186952,80
2026-09-11 19:37:59.194,1789166279.1946445,77
2026-09-11 19:37:59.202,1789166279.2023368,72
2026-09-11 19:37:59.210,1789166279.2100291,58
2026-09-11 19:37:59.217,1789166279.2177215,36
2026-09-11 19:37:59.225,1789166279.2254138,7
2026-09-11 19:37:59.233,1789166279.233106,-19
2026-09-11 19:37:59.240,1789166279.2407982,-38
2026-09-11 19:37:59.248,1789166279.2484906,-53
2026-09-11 19:37:59.256,1789166279.256183,-67
2026-09-11 19:37:59.263,1789166279.2638752,-77
2026-09-11 19:37:59.271,1789166279.2715676,-77
2026-09-11 19:37:59.279,1789166279.27926,-67
2026-09-11 19:37:59.286,1789166279.2869523,-58
2026-09-11 19:37:59.294,1789166279.2946444,-48
2026-09-11 19:37:59.302,1789166279.3023367,-38
2026-09-11 19:37:59.310,1789166279.310029,-31
2026-09-11 19:37:59.317,1789166279.3177214,-29
2026-09-11 19:37:59.325,1789166279.3254137,-24
2026-09-11 19:37:59.333,1789166279.333106,-19
2026-09-11 19:37:59.340,1789166279.3407984,-21
2026-09-11 19:37:59.348,1789166279.3484907,-21
2026-09-11 19:37:59.356,1789166279.3561828,-19
2026-09-11 19:37:59.363,1789166279.3638752,-21
2026-09-11 19:37:59.371,1789166279.3715675,-26
2026-09-11 19:37:59.379,1789166279.3792598,-29
2026-09-11 19:37:59.386,1789166279.3869522,-36
2026-09-11 19:37:59.394,1789166279.3946445,-38
2026-09-11 19:37:59.402,1789166279.4023368,-29
2026-09-11 19:37:59.410,1789166279.4100292,-19
2026-09-11 19:37:59.417,1789166279.4177213,-7
2026-09-11 19:37:59.425,1789166279.4254136,9
2026-09-11 19:37:59.433,1789166279.433106,29
2026-09-11 19:37:59.440,1789166279.4407983,31
2026-09-11 19:37:59.448,1789166279.4484906,16
2026-09-11 19:37:59.456,1789166279.456183,0
2026-09-11 19:37:59.463,1789166279.4638753,-12
2026-09-11 19:37:59.471,1789166279.4715676,-24
2026-09-11 19:37:59.479,1789166279.4792597,-24
2026-09-11 19:37:59.486,1789166279.486952,-19
2026-09-11 19:37:59.494,1789166279.4946444,-16
2026-09-11 19:37:59.502,1789166279.5023367,-16
2026-09-11 19:37:59.510,1789166279.510029,-14
2026-09-11 19:37:59.517,1789166279.5177214,-14
2026-09-11 19:37:59.525,1789166279.5254138,-12
2026-09-11 19:37:59.533,1789166279.533106,46
2026-09-11 19:37:59.540,1789166279.5407982,218
2026-09-11 19:37:59.548,1789166279.5484905,494
2026-09-11 19:37:59.556,1789166279.5561829,834
2026-09-11 19:37:59.563,1789166279.5638752,926
2026-09-11 19:37:59.571,1789166279.5715675,320
2026-09-11 19:37:59.579,1789166279.5792599,-397
2026-09-11 19:37:59.586,1789166279.5869522,-322
2026-09-11 19:37:59.594,1789166279.5946445,9
2026-09-11 19:37:59.602,1789166279.6023366,-55
2026-09-11 19:37:59.610,1789166279.610029,-128
2026-09-11 19:37:59.617,1789166279.6177213,-41
2026-09-11 19:37:59.625,1789166279.6254137,-33
2026-09-11 19:37:59.633,1789166279.633106,-63
2026-09-11 19:37:59.640,1789166279.6407983,-31
2026-09-11 19:37:59.648,1789166279.6484907,-12
2026-09-11 19:37:59.656,1789166279.656183,-19
2026-09-11 19:37:59.663,1789166279.6638753,-9
2026-09-11 19:37:59.671,1789166279.6715674,2
2026-09-11 19:37:59.679,1789166279.6792598,9
2026-09-11 19:37:59.686,1789166279.686952,19
2026-09-11 19:37:59.694,1789166279.6940827,29
2026-09-11 19:37:59.701,1789166279.701775,38
2026-09-11 19:37:59.709,1789166279.7094674,48
2026-09-11 19:37:59.717,1789166279.7171597,60
2026-09-11 19:37:59.724,1789166279.724852,70
2026-09-11 19:37:59.732,1789166279.7325442,80
2026-09-11 19:37:59.740,1789166279.7402365,84
2026-09-11 19:37:59.747,1789166279.7479289,89
2026-09-11 19:37:59.755,1789166279.7556212,89
2026-09-11 19:37:59.763,1789166279.7633135,84
2026-09-11 19:37:59.771,1789166279.7710059,77
2026-09-11 19:37:59.778,1789166279.7786982,67
2026-09-11 19:37:59.786,1789166279.7863905,58
2026-09-11 19:37:59.794,1789166279.7940826,43
2026-09-11 19:37:59.801,1789166279.801775,29
2026-09-11 19:37:59.809,1789166279.8094673,12
2026-09-11 19:37:59.817,1789166279.8171597,-4
2026-09-11 19:37:59.824,1789166279.824852,-21
2026-09-11 19:37:59.832,1789166279.8325443,-36
2026-09-11 19:37:59.840,1789166279.8402367,-46
2026-09-11 19:37:59.847,1789166279.847929,-50
2026-09-11 19:37:59.855,1789166279.855621,-48
2026-09-11 19:37:59.863,1789166279.8633134,-41
2026-09-11 19:37:59.871,1789166279.8710058,-31
2026-09-11 19:37:59.878,1789166279.878698,-21
2026-09-11 19:37:59.886,1789166279.8863904,-14
2026-09-11 19:37:59.894,1789166279.8940828,-12
2026-09-11 19:37:59.901,1789166279.9017751,-7
2026-09-11 19:37:59.909,1789166279.9094675,-4
2026-09-11 19:37:59.917,1789166279.9171596,-4
2026-09-11 19:37:59.924,1789166279.924852,-4
2026-09-11 19:37:59.932,1789166279.9325442,-2
2026-09-11 19:37:59.940,1789166279.9402366,-4
2026-09-11 19:37:59.947,1789166279.947929,-7
2026-09-11 19:37:59.955,1789166279.9556212,-4
2026-09-11 19:37:59.963,1789166279.9633136,-2
2026-09-11 19:37:59.971,1789166279.971006,-9
2026-09-11 19:37:59.978,1789166279.978698,-16
2026-09-11 19:37:59.986,1789166279.9863904,-24
2026-09-11 19:37:59.994,1789166279.9940827,-19
2026-09-11 19:38:00.001,1789166280.001775,-9
2026-09-11 19:38:00.009,1789166280.0094674,-2
2026-09-11 19:38:00.017,1789166280.0171597,14
2026-09-11 19:38:00.024,1789166280.024852,38
2026-09-11 19:38:00.032,1789166280.0325444,50
2026-09-11 19:38:00.040,1789166280.0402365,43
2026-09-11 19:38:00.047,1789166280.0479288,26
2026-09-11 19:38:00.055,1789166280.0556211,12
2026-09-11 19:38:00.063,1789166280.0633135,-4
2026-09-11 19:38:00.071,1789166280.0710058,-9
2026-09-11 19:38:00.078,1789166280.0786982,-9
2026-09-11 19:38:00.086,1789166280.0863905,-9
2026-09-11 19:38:00.094,1789166280.0940828,-9
2026-09-11 19:38:00.101,1789166280.101775,-4
2026-09-11 19:38:00.109,1789166280.1094673,-4
2026-09-11 19:38:00.117,1789166280.1171596,-9
2026-09-11 19:38:00.124,1789166280.124852,0
2026-09-11 19:38:00.132,1789166280.1325443,82
2026-09-11 19:38:00.140,1789166280.1402366,271
2026-09-11 19:38:00.147,1789166280.147929,540
2026-09-11 19:38:00.155,1789166280.1556213,870
2026-09-11 19:38:00.163,1789166280.1633134,880
2026-09-11 19:38:00.171,1789166280.1710057,184
2026-09-11 19:38:00.178,1789166280.178698,-419
2026-09-11 19:38:00.186,1789166280.1863904,-223
2026-09-11 19:38:00.194,1789166280.1940827,29
2026-09-11 19:38:00.201,1789166280.201775,-84
2026-09-11 19:38:00.209,1789166280.2094674,-104
2026-09-11 19:38:00.217,1789166280.2171597,-14
2026-09-11 19:38:00.224,1789166280.224852,-36
2026-09-11 19:38:00.232,1789166280.2325442,-53
2026-09-11 19:38:00.240,1789166280.2402365,-14
2026-09-11 19:38:00.247,1789166280.2479289,-7
2026-09-11 19:38:00.255,1789166280.25509,-14
2026-09-11 19:38:00.262,1789166280.2627823,2
2026-09-11 19:38:00.270,1789166280.2704747,14
2026-09-11 19:38:00.278,1789166280.278167,21
2026-09-11 19:38:00.285,1789166280.2858593,31
2026-09-11 19:38:00.293,1789166280.2935514,41
2026-09-11 19:38:00.301,1789166280.3012438,46
2026-09-11 19:38:00.308,1789166280.308936,53
2026-09-11 19:38:00.316,1789166280.3166285,65
2026-09-11 19:38:00.324,1789166280.3243208,77
2026-09-11 19:38:00.332,1789166280.3320131,87
2026-09-11 19:38:00.339,1789166280.3397055,92
2026-09-11 19:38:00.347,1789166280.3473978,89
2026-09-11 19:38:00.355,1789166280.35509,82
2026-09-11 19:38:00.362,1789166280.3627822,77
2026-09-11 19:38:00.370,1789166280.3704746,80
2026-09-11 19:38:00.378,1789166280.378167,77
2026-09-11 19:38:00.385,1789166280.3858593,67
2026-09-11 19:38:00.393,1789166280.3935516,58
2026-09-11 19:38:00.401,1789166280.401244,46
2026-09-11 19:38:00.408,1789166280.4089363,26
2026-09-11 19:38:00.416,1789166280.4166284,9
2026-09-11 19:38:00.424,1789166280.4243207,-2
2026-09-11 19:38:00.432,1789166280.432013,-16
2026-09-11 19:38:00.439,1789166280.4397054,-36
2026-09-11 19:38:00.447,1789166280.4473977,-41
2026-09-11 19:38:00.455,1789166280.45509,-33
2026-09-11 19:38:00.462,1789166280.4627824,-21
2026-09-11 19:38:00.470,1789166280.4704747,-7
2026-09-11 19:38:00.478,1789166280.4781668,-2
2026-09-11 19:38:00.485,1789166280.4858592,-12
2026-09-11 19:38:00.493,1789166280.4935515,-12
2026-09-11 19:38:00.501,1789166280.5012438,-2
2026-09-11 19:38:00.508,1789166280.5089362,0
2026-09-11 19:38:00.516,1789166280.5166285,-2
2026-09-11 19:38:00.524,1789166280.5243208,-7
2026-09-11 19:38:00.532,1789166280.5320132,-12
2026-09-11 19:38:00.539,1789166280.5397053,-9
2026-09-11 19:38:00.547,1789166280.5473976,-4
2026-09-11 19:38:00.555,1789166280.55509,-4
2026-09-11 19:38:00.562,1789166280.5627823,-16
2026-09-11 19:38:00.570,1789166280.5704746,-16
2026-09-11 19:38:00.578,1789166280.578167,-9
2026-09-11 19:38:00.585,1789166280.5858593,-16
2026-09-11 19:38:00.593,1789166280.5935516,-31
2026-09-11 19:38:00.601,1789166280.6012437,-38
2026-09-11 19:38:00.608,1789166280.608936,-36
2026-09-11 19:38:00.616,1789166280.6166284,-26
2026-09-11 19:38:00.624,1789166280.6243207,-16
2026-09-11 19:38:00.632,1789166280.632013,-7
2026-09-11 19:38:00.639,1789166280.6397054,16
2026-09-11 19:38:00.647,1789166280.6473978,36
2026-09-11 19:38:00.655,1789166280.65509,38
2026-09-11 19:38:00.662,1789166280.6627822,21
2026-09-11 19:38:00.670,1789166280.6704745,-2
2026-09-11 19:38:00.678,1789166280.6781669,-21
2026-09-11 19:38:00.685,1789166280.6858592,-29
2026-09-11 19:38:00.693,1789166280.6935515,-29
2026-09-11 19:38:00.701,1789166280.7012439,-29
2026-09-11 19:38:00.708,1789166280.7089362,-29
2026-09-11 19:38:00.716,1789166280.7166286,-19
2026-09-11 19:38:00.724,1789166280.7243207,-12
2026-09-11 19:38:00.732,1789166280.732013,-19
2026-09-11 19:38:00.739,1789166280.7397053,-19
2026-09-11 19:38:00.747,1789166280.7473977,41
2026-09-11 19:38:00.755,1789166280.75509,218
2026-09-11 19:38:00.762,1789166280.7627823,504
2026-09-11 19:38:00.770,1789166280.7704747,805
2026-09-11 19:38:00.778,1789166280.778167,848
2026-09-11 19:38:00.785,1789166280.7858593,261
2026-09-11 19:38:00.793,1789166280.7935514,-443
2026-09-11 19:38:00.801,1789166280.8012438,-383
2026-09-11 19:38:00.808,1789166280.808936,-19
2026-09-11 19:38:00.816,1789166280.816067,-43
2026-09-11 19:38:00.823,1789166280.8237593,-113
2026-09-11 19:38:00.831,1789166280.8314517,-31
2026-09-11 19:38:00.839,1789166280.839144,-26
2026-09-11 19:38:00.846,1789166280.8468363,-55
2026-09-11 19:38:00.854,1789166280.8545284,-12
2026-09-11 19:38:00.862,1789166280.8622208,14
2026-09-11 19:38:00.869,1789166280.869913,9
2026-09-11 19:38:00.877,1789166280.8776054,24
2026-09-11 19:38:00.885,1789166280.8852978,33
2026-09-11 19:38:00.892,1789166280.89299,31
2026-09-11 19:38:00.900,1789166280.9006824,48
2026-09-11 19:38:00.908,1789166280.9083748,65
2026-09-11 19:38:00.916,1789166280.916067,63
2026-09-11 19:38:00.923,1789166280.9237592,72
2026-09-11 19:38:00.931,1789166280.9314516,101
2026-09-11 19:38:00.939,1789166280.939144,116
2026-09-11 19:38:00.946,1789166280.9468362,126
2026-09-11 19:38:00.954,1789166280.9545286,143
2026-09-11 19:38:00.962,1789166280.962221,152
2026-09-11 19:38:00.969,1789166280.9699132,160
2026-09-11 19:38:00.977,1789166280.9776053,160
2026-09-11 19:38:00.985,1789166280.9852977,150
2026-09-11 19:38:00.992,1789166280.99299,150
2026-09-11 19:38:01.000,1789166281.0006824,150
2026-09-11 19:38:01.008,1789166281.0083747,135
2026-09-11 19:38:01.016,1789166281.016067,113
2026-09-11 19:38:01.023,1789166281.0237594,80
2026-09-11 19:38:01.031,1789166281.0314517,41
2026-09-11 19:38:01.039,1789166281.0391438,9
2026-09-11 19:38:01.046,1789166281.0468361,-24
2026-09-11 19:38:01.054,1789166281.0545285,-53
2026-09-11 19:38:01.062,1789166281.0622208,-65
2026-09-11 19:38:01.069,1789166281.0699131,-67
2026-09-11 19:38:01.077,1789166281.0776055,-65
2026-09-11 19:38:01.085,1789166281.0852978,-55
2026-09-11 19:38:01.092,1789166281.0929902,-41
2026-09-11 19:38:01.100,1789166281.1006823,-31
2026-09-11 19:38:01.108,1789166281.1083746,-31
2026-09-11 19:38:01.116,1789166281.116067,-16
2026-09-11 19:38:01.123,1789166281.1237593,2
2026-09-11 19:38:01.131,1789166281.1314516,-4
2026-09-11 19:38:01.139,1789166281.139144,-19
2026-09-11 19:38:01.146,1789166281.1468363,-16
2026-09-11 19:38:01.154,1789166281.1545286,-19
2026-09-11 19:38:01.162,1789166281.1622207,-14
2026-09-11 19:38:01.169,1789166281.169913,-12
2026-09-11 19:38:01.177,1789166281.1776054,-24
2026-09-11 19:38:01.185,1789166281.1852977,-31
2026-09-11 19:38:01.192,1789166281.19299,-29
2026-09-11 19:38:01.200,1789166281.2006824,-31
2026-09-11 19:38:01.208,1789166281.2083747,-31
2026-09-11 19:38:01.216,1789166281.216067,-31
2026-09-11 19:38:01.223,1789166281.2237592,-24
2026-09-11 19:38:01.231,1789166281.2314515,0
2026-09-11 19:38:01.239,1789166281.2391438,31
2026-09-11 19:38:01.246,1789166281.2468362,36
2026-09-11 19:38:01.254,1789166281.2545285,16
2026-09-11 19:38:01.262,1789166281.2622209,-7
2026-09-11 19:38:01.269,1789166281.2699132,-29
2026-09-11 19:38:01.277,1789166281.2776055,-31
2026-09-11 19:38:01.285,1789166281.2852976,-24
2026-09-11 19:38:01.292,1789166281.29299,-26
2026-09-11 19:38:01.300,1789166281.3006823,-21
2026-09-11 19:38:01.308,1789166281.3083746,-12
2026-09-11 19:38:01.316,1789166281.316067,-24
2026-09-11 19:38:01.323,1789166281.3237593,-43
2026-09-11 19:38:01.331,1789166281.3314517,-41
2026-09-11 19:38:01.339,1789166281.339144,-14
2026-09-11 19:38:01.346,1789166281.3468363,82
2026-09-11 19:38:01.354,1789166281.3545284,346
2026-09-11 19:38:01.362,1789166281.3622208,722
2026-09-11 19:38:01.369,1789166281.369913,911
2026-09-11 19:38:01.377,1789166281.3770437,526
2026-09-11 19:38:01.384,1789166281.384736,-281
2026-09-11 19:38:01.392,1789166281.3924284,-548
2026-09-11 19:38:01.400,1789166281.4001207,-169
2026-09-11 19:38:01.407,1789166281.407813,-16
2026-09-11 19:38:01.415,1789166281.4155052,-113
2026-09-11 19:38:01.423,1789166281.4231975,-67
2026-09-11 19:38:01.430,1789166281.4308898,-21
2026-09-11 19:38:01.438,1789166281.4385822,-50
2026-09-11 19:38:01.446,1789166281.4462745,-19
2026-09-11 19:38:01.453,1789166281.4539669,12
2026-09-11 19:38:01.461,1789166281.4616592,-12
2026-09-11 19:38:01.469,1789166281.4693515,-4
2026-09-11 19:38:01.477,1789166281.4770436,31
2026-09-11 19:38:01.484,1789166281.484736,38
2026-09-11 19:38:01.492,1789166281.4924283,43
2026-09-11 19:38:01.500,1789166281.5001206,65
2026-09-11 19:38:01.507,1789166281.507813,77
2026-09-11 19:38:01.515,1789166281.5155053,82
2026-09-11 19:38:01.523,1789166281.5231977,99
2026-09-11 19:38:01.530,1789166281.53089,123
2026-09-11 19:38:01.538,1789166281.538582,135
2026-09-11 19:38:01.546,1789166281.5462744,140
2026-09-11 19:38:01.553,1789166281.5539668,157
2026-09-11 19:38:01.561,1789166281.561659,177
2026-09-11 19:38:01.569,1789166281.5693514,181
2026-09-11 19:38:01.577,1789166281.5770438,174
2026-09-11 19:38:01.584,1789166281.584736,167
2026-09-11 19:38:01.592,1789166281.5924284,152
2026-09-11 19:38:01.600,1789166281.6001205,135
2026-09-11 19:38:01.607,1789166281.607813,113
2026-09-11 19:38:01.615,1789166281.6155052,80
2026-09-11 19:38:01.623,1789166281.6231976,33
2026-09-11 19:38:01.630,1789166281.63089,-9
2026-09-11 19:38:01.638,1789166281.6385822,-41
2026-09-11 19:38:01.646,1789166281.6462746,-60
2026-09-11 19:38:01.653,1789166281.653967,-77
2026-09-11 19:38:01.661,1789166281.661659,-82
2026-09-11 19:38:01.669,1789166281.6693513,-80
2026-09-11 19:38:01.677,1789166281.6770437,-75
2026-09-11 19:38:01.684,1789166281.684736,-65
2026-09-11 19:38:01.692,1789166281.6924284,-50
2026-09-11 19:38:01.700,1789166281.7001207,-41
2026-09-11 19:38:01.707,1789166281.707813,-36
2026-09-11 19:38:01.715,1789166281.7155054,-31
2026-09-11 19:38:01.723,1789166281.7231975,-26
2026-09-11 19:38:01.730,1789166281.7308898,-19
2026-09-11 19:38:01.738,1789166281.7385821,-12
2026-09-11 19:38:01.746,1789166281.7462745,-7
2026-09-11 19:38:01.753,1789166281.7539668,-9
2026-09-11 19:38:01.761,1789166281.7616591,-19
2026-09-11 19:38:01.769,1789166281.7693515,-19
2026-09-11 19:38:01.777,1789166281.7770438,-19
2026-09-11 19:38:01.784,1789166281.784736,-26
2026-09-11 19:38:01.792,1789166281.7924283,-29
2026-09-11 19:38:01.800,1789166281.8001206,-29
2026-09-11 19:38:01.807,1789166281.807813,-24
2026-09-11 19:38:01.815,1789166281.8155053,-12
2026-09-11 19:38:01.823,1789166281.8231976,7
2026-09-11 19:38:01.830,1789166281.83089,26
2026-09-11 19:38:01.838,1789166281.8385823,29
2026-09-11 19:38:01.846,1789166281.8462744,16
2026-09-11 19:38:01.853,1789166281.8539667,-4
2026-09-11 19:38:01.861,1789166281.861659,-21
2026-09-11 19:38:01.869,1789166281.8693514,-29
2026-09-11 19:38:01.877,1789166281.8770437,-29
2026-09-11 19:38:01.884,1789166281.884736,-26
2026-09-11 19:38:01.892,1789166281.8924284,-24
2026-09-11 19:38:01.900,1789166281.9001207,-21
2026-09-11 19:38:01.907,1789166281.907813,-19
2026-09-11 19:38:01.915,1789166281.9155052,-24
2026-09-11 19:38:01.923,1789166281.9231975,-21
2026-09-11 19:38:01.930,1789166281.9308898,12
2026-09-11 19:38:01.938,1789166281.9380205,143
2026-09-11 19:38:01.945,1789166281.9457128,424
2026-09-11 19:38:01.953,1789166281.9534051,766
2026-09-11 19:38:01.961,1789166281.9610975,928
2026-09-11 19:38:01.968,1789166281.9687898,494
2026-09-11 19:38:01.976,1789166281.976482,-300
2026-09-11 19:38:01.984,1789166281.9841743,-455
2026-09-11 19:38:01.991,1789166281.9918666,-72
2026-09-11 19:38:01.999,1789166281.999559,-19
2026-09-11 19:38:02.007,1789166282.0072513,-138
2026-09-11 19:38:02.014,1789166282.0149436,-65
2026-09-11 19:38:02.022,1789166282.022636,-26
2026-09-11 19:38:02.030,1789166282.0303283,-67
2026-09-11 19:38:02.038,1789166282.0380204,-46
2026-09-11 19:38:02.045,1789166282.0457127,-12
2026-09-11 19:38:02.053,1789166282.053405,-21
2026-09-11 19:38:02.061,1789166282.0610974,-19
2026-09-11 19:38:02.068,1789166282.0687897,0
2026-09-11 19:38:02.076,1789166282.076482,12
2026-09-11 19:38:02.084,1789166282.0841744,16
2026-09-11 19:38:02.091,1789166282.0918667,26
2026-09-11 19:38:02.099,1789166282.0995588,33
2026-09-11 19:38:02.107,1789166282.1072512,41
2026-09-11 19:38:02.114,1789166282.1149435,55
2026-09-11 19:38:02.122,1789166282.1226358,70
2026-09-11 19:38:02.130,1789166282.1303282,80
2026-09-11 19:38:02.138,1789166282.1380205,87
2026-09-11 19:38:02.145,1789166282.1457129,92
2026-09-11 19:38:02.153,1789166282.1534052,97
2026-09-11 19:38:02.161,1789166282.1610973,99
2026-09-11 19:38:02.168,1789166282.1687896,97
2026-09-11 19:38:02.176,1789166282.176482,84
2026-09-11 19:38:02.184,1789166282.1841743,75
2026-09-11 19:38:02.191,1789166282.1918666,65
2026-09-11 19:38:02.199,1789166282.199559,48
2026-09-11 19:38:02.207,1789166282.2072513,26
2026-09-11 19:38:02.214,1789166282.2149436,0
2026-09-11 19:38:02.222,1789166282.2226357,-26
2026-09-11 19:38:02.230,1789166282.230328,-43
2026-09-11 19:38:02.238,1789166282.2380204,-58
2026-09-11 19:38:02.245,1789166282.2457128,-70
2026-09-11 19:38:02.253,1789166282.253405,-70
2026-09-11 19:38:02.261,1789166282.2610974,-63
2026-09-11 19:38:02.268,1789166282.2687898,-55
2026-09-11 19:38:02.276,1789166282.276482,-46
2026-09-11 19:38:02.284,1789166282.2841742,-38
2026-09-11 19:38:02.291,1789166282.2918665,-33
2026-09-11 19:38:02.299,1789166282.2995589,-26
2026-09-11 19:38:02.307,1789166282.3072512,-21
2026-09-11 19:38:02.314,1789166282.3149436,-19
2026-09-11 19:38:02.322,1789166282.322636,-19
2026-09-11 19:38:02.330,1789166282.3303282,-19
2026-09-11 19:38:02.338,1789166282.3380206,-21
2026-09-11 19:38:02.345,1789166282.3457127,-24
2026-09-11 19:38:02.353,1789166282.353405,-21
2026-09-11 19:38:02.361,1789166282.3610973,-21
2026-09-11 19:38:02.368,1789166282.3687897,-29
2026-09-11 19:38:02.376,1789166282.376482,-41
2026-09-11 19:38:02.384,1789166282.3841743,-41
2026-09-11 19:38:02.391,1789166282.3918667,-33
2026-09-11 19:38:02.399,1789166282.399559,-29
2026-09-11 19:38:02.407,1789166282.4072511,-16
2026-09-11 19:38:02.414,1789166282.4149435,7
2026-09-11 19:38:02.422,1789166282.4226358,24
2026-09-11 19:38:02.430,1789166282.4303281,24
2026-09-11 19:38:02.438,1789166282.4380205,9
2026-09-11 19:38:02.445,1789166282.4457128,-4
2026-09-11 19:38:02.453,1789166282.4534051,-12
2026-09-11 19:38:02.461,1789166282.4610975,-14
2026-09-11 19:38:02.468,1789166282.4687898,-26
2026-09-11 19:38:02.476,1789166282.476482,-41
2026-09-11 19:38:02.484,1789166282.4841743,-33
2026-09-11 19:38:02.491,1789166282.4918666,-26
2026-09-11 19:38:02.498,1789166282.4989974,-31
2026-09-11 19:38:02.506,1789166282.5066898,-33
2026-09-11 19:38:02.514,1789166282.5143821,-24
2026-09-11 19:38:02.522,1789166282.5220745,29
2026-09-11 19:38:02.529,1789166282.5297668,191
2026-09-11 19:38:02.537,1789166282.537459,463
2026-09-11 19:38:02.545,1789166282.5451512,805
2026-09-11 19:38:02.552,1789166282.5528436,919
2026-09-11 19:38:02.560,1789166282.560536,341
2026-09-11 19:38:02.568,1789166282.5682282,-388
2026-09-11 19:38:02.575,1789166282.5759206,-344
2026-09-11 19:38:02.583,1789166282.583613,-14
2026-09-11 19:38:02.591,1789166282.5913053,-72
2026-09-11 19:38:02.598,1789166282.5989974,-145
2026-09-11 19:38:02.606,1789166282.6066897,-55
2026-09-11 19:38:02.614,1789166282.614382,-48
2026-09-11 19:38:02.622,1789166282.6220744,-82
2026-09-11 19:38:02.629,1789166282.6297667,-48
2026-09-11 19:38:02.637,1789166282.637459,-29
2026-09-11 19:38:02.645,1789166282.6451514,-38
2026-09-11 19:38:02.652,1789166282.6528437,-21
2026-09-11 19:38:02.660,1789166282.6605358,-4
2026-09-11 19:38:02.668,1789166282.6682281,-7
2026-09-11 19:38:02.675,1789166282.6759205,0
2026-09-11 19:38:02.683,1789166282.6836128,16
2026-09-11 19:38:02.691,1789166282.6913052,21
2026-09-11 19:38:02.698,1789166282.6989975,26
2026-09-11 19:38:02.706,1789166282.7066898,38
2026-09-11 19:38:02.714,1789166282.7143822,50
2026-09-11 19:38:02.722,1789166282.7220743,58
2026-09-11 19:38:02.729,1789166282.7297666,67
2026-09-11 19:38:02.737,1789166282.737459,72
2026-09-11 19:38:02.745,1789166282.7451513,67
2026-09-11 19:38:02.752,1789166282.7528436,63
2026-09-11 19:38:02.760,1789166282.760536,55
2026-09-11 19:38:02.768,1789166282.7682283,43
2026-09-11 19:38:02.775,1789166282.7759206,38
2026-09-11 19:38:02.783,1789166282.7836127,33
2026-09-11 19:38:02.791,1789166282.791305,21
2026-09-11 19:38:02.798,1789166282.7989974,2
2026-09-11 19:38:02.806,1789166282.8066897,-14
2026-09-11 19:38:02.814,1789166282.814382,-26
2026-09-11 19:38:02.822,1789166282.8220744,-41
2026-09-11 19:38:02.829,1789166282.8297668,-50
2026-09-11 19:38:02.837,1789166282.837459,-53
2026-09-11 19:38:02.845,1789166282.8451512,-53
2026-09-11 19:38:02.852,1789166282.8528435,-48
2026-09-11 19:38:02.860,1789166282.8605359,-38
2026-09-11 19:38:02.868,1789166282.8682282,-31
2026-09-11 19:38:02.875,1789166282.8759205,-24
2026-09-11 19:38:02.883,1789166282.8836129,-19
2026-09-11 19:38:02.891,1789166282.8913052,-16
2026-09-11 19:38:02.898,1789166282.8989975,-14
2026-09-11 19:38:02.906,1789166282.9066896,-12
2026-09-11 19:38:02.914,1789166282.914382,-12
2026-09-11 19:38:02.922,1789166282.9220743,-14
2026-09-11 19:38:02.929,1789166282.9297667,-16
2026-09-11 19:38:02.937,1789166282.937459,-12
2026-09-11 19:38:02.945,1789166282.9451513,-9
2026-09-11 19:38:02.952,1789166282.9528437,-19
2026-09-11 19:38:02.960,1789166282.960536,-21
2026-09-11 19:38:02.968,1789166282.968228,-24
2026-09-11 19:38:02.975,1789166282.9759204,-31
2026-09-11 19:38:02.983,1789166282.9836128,-36
2026-09-11 19:38:02.991,1789166282.991305,-29
2026-09-11 19:38:02.998,1789166282.9989974,-21
2026-09-11 19:38:03.006,1789166283.0066898,-7
2026-09-11 19:38:03.014,1789166283.0143821,19
2026-09-11 19:38:03.022,1789166283.0220745,38
2026-09-11 19:38:03.029,1789166283.0297668,36
2026-09-11 19:38:03.037,1789166283.037459,24
2026-09-11 19:38:03.045,1789166283.0451512,7
2026-09-11 19:38:03.052,1789166283.0528436,-12
2026-09-11 19:38:03.059,1789166283.059974,-24
2026-09-11 19:38:03.067,1789166283.0676663,-26
2026-09-11 19:38:03.075,1789166283.0753586,-24
2026-09-11 19:38:03.083,1789166283.083051,-24
2026-09-11 19:38:03.090,1789166283.0907433,-16
2026-09-11 19:38:03.098,1789166283.0984354,-16
2026-09-11 19:38:03.106,1789166283.1061277,-24
2026-09-11 19:38:03.113,1789166283.11382,-21
2026-09-11 19:38:03.121,1789166283.1215124,21
2026-09-11 19:38:03.129,1789166283.1292048,167
2026-09-11 19:38:03.136,1789166283.136897,409
2026-09-11 19:38:03.144,1789166283.1445894,729
2026-09-11 19:38:03.152,1789166283.1522818,899
2026-09-11 19:38:03.159,1789166283.1599739,419
2026-09-11 19:38:03.167,1789166283.1676662,-324
2026-09-11 19:38:03.175,1789166283.1753585,-361
2026-09-11 19:38:03.183,1789166283.1830509,-21
2026-09-11 19:38:03.190,1789166283.1907432,-38
2026-09-11 19:38:03.198,1789166283.1984355,-126
2026-09-11 19:38:03.206,1789166283.206128,-53
2026-09-11 19:38:03.213,1789166283.2138202,-36
2026-09-11 19:38:03.221,1789166283.2215123,-65
2026-09-11 19:38:03.229,1789166283.2292047,-38
2026-09-11 19:38:03.236,1789166283.236897,-21
2026-09-11 19:38:03.244,1789166283.2445893,-24
2026-09-11 19:38:03.252,1789166283.2522817,-14
2026-09-11 19:38:03.259,1789166283.259974,0
2026-09-11 19:38:03.267,1789166283.2676663,2
2026-09-11 19:38:03.275,1789166283.2753587,9
2026-09-11 19:38:03.283,1789166283.2830508,21
2026-09-11 19:38:03.290,1789166283.290743,31
2026-09-11 19:38:03.298,1789166283.2984354,38
2026-09-11 19:38:03.306,1789166283.3061278,46
2026-09-11 19:38:03.313,1789166283.3138201,58
2026-09-11 19:38:03.321,1789166283.3215125,65
2026-09-11 19:38:03.329,1789166283.3292048,70
2026-09-11 19:38:03.336,1789166283.3368971,72
2026-09-11 19:38:03.344,1789166283.3445892,72
2026-09-11 19:38:03.352,1789166283.3522816,72
2026-09-11 19:38:03.359,1789166283.359974,67
2026-09-11 19:38:03.367,1789166283.3676662,63
2026-09-11 19:38:03.375,1789166283.3753586,60
2026-09-11 19:38:03.383,1789166283.383051,55
2026-09-11 19:38:03.390,1789166283.3907433,46
2026-09-11 19:38:03.398,1789166283.3984356,24
2026-09-11 19:38:03.406,1789166283.4061277,2
2026-09-11 19:38:03.413,1789166283.41382,-12
2026-09-11 19:38:03.421,1789166283.4215124,-29
2026-09-11 19:38:03.429,1789166283.4292047,-43
2026-09-11 19:38:03.436,1789166283.436897,-48
2026-09-11 19:38:03.444,1789166283.4445894,-53
2026-09-11 19:38:03.452,1789166283.4522817,-48
2026-09-11 19:38:03.459,1789166283.459974,-33
2026-09-11 19:38:03.467,1789166283.4676661,-21
2026-09-11 19:38:03.475,1789166283.4753585,-16
2026-09-11 19:38:03.483,1789166283.4830508,-14
2026-09-11 19:38:03.490,1789166283.4907432,-16
2026-09-11 19:38:03.498,1789166283.4984355,-24
2026-09-11 19:38:03.506,1789166283.5061278,-24
2026-09-11 19:38:03.513,1789166283.5138202,-21
2026-09-11 19:38:03.521,1789166283.5215125,-29
2026-09-11 19:38:03.529,1789166283.5292046,-31
2026-09-11 19:38:03.536,1789166283.536897,-24
2026-09-11 19:38:03.544,1789166283.5445893,-26
2026-09-11 19:38:03.552,1789166283.5522816,-38
2026-09-11 19:38:03.559,1789166283.559974,-43
2026-09-11 19:38:03.567,1789166283.5676663,-38
2026-09-11 19:38:03.575,1789166283.5753586,-46
2026-09-11 19:38:03.583,1789166283.583051,-55
2026-09-11 19:38:03.590,1789166283.5907433,-50
2026-09-11 19:38:03.598,1789166283.5984354,-46
2026-09-11 19:38:03.606,1789166283.6061277,-33
2026-09-11 19:38:03.613,1789166283.61382,-14
2026-09-11 19:38:03.620,1789166283.620951,-4
2026-09-11 19:38:03.628,1789166283.6286433,-2
2026-09-11 19:38:03.636,1789166283.6363356,7
2026-09-11 19:38:03.644,1789166283.644028,-4
2026-09-11 19:38:03.651,1789166283.6517203,-38
2026-09-11 19:38:03.659,1789166283.6594124,-53
2026-09-11 19:38:03.667,1789166283.6671047,-53
2026-09-11 19:38:03.674,1789166283.674797,-55
2026-09-11 19:38:03.682,1789166283.6824894,-55
2026-09-11 19:38:03.690,1789166283.6901817,-55
2026-09-11 19:38:03.697,1789166283.697874,-55
2026-09-11 19:38:03.705,1789166283.7055664,-50
2026-09-11 19:38:03.713,1789166283.7132587,-53
2026-09-11 19:38:03.720,1789166283.7209508,-46
2026-09-11 19:38:03.728,1789166283.7286432,46
2026-09-11 19:38:03.736,1789166283.7363355,269
2026-09-11 19:38:03.744,1789166283.7440279,582
2026-09-11 19:38:03.751,1789166283.7517202,824
2026-09-11 19:38:03.759,1789166283.7594125,608
2026-09-11 19:38:03.767,1789166283.7671049,-138
2026-09-11 19:38:03.774,1789166283.7747972,-533
2026-09-11 19:38:03.782,1789166283.7824893,-225
2026-09-11 19:38:03.790,1789166283.7901816,-26
2026-09-11 19:38:03.797,1789166283.797874,-128
2026-09-11 19:38:03.805,1789166283.8055663,-113
2026-09-11 19:38:03.813,1789166283.8132586,-50
2026-09-11 19:38:03.820,1789166283.820951,-75
2026-09-11 19:38:03.828,1789166283.8286433,-70
2026-09-11 19:38:03.836,1789166283.8363357,-33
2026-09-11 19:38:03.844,1789166283.8440278,-31
2026-09-11 19:38:03.851,1789166283.85172,-26
2026-09-11 19:38:03.859,1789166283.8594124,-9
2026-09-11 19:38:03.867,1789166283.8671048,-4
2026-09-11 19:38:03.874,1789166283.874797,2
2026-09-11 19:38:03.882,1789166283.8824894,16
2026-09-11 19:38:03.890,1789166283.8901818,21
2026-09-11 19:38:03.897,1789166283.897874,36
2026-09-11 19:38:03.905,1789166283.9055662,60
2026-09-11 19:38:03.913,1789166283.9132586,77
2026-09-11 19:38:03.920,1789166283.920951,84
2026-09-11 19:38:03.928,1789166283.9286432,87
2026-09-11 19:38:03.936,1789166283.9363356,99
2026-09-11 19:38:03.944,1789166283.944028,121
2026-09-11 19:38:03.951,1789166283.9517202,133
2026-09-11 19:38:03.959,1789166283.9594126,128
2026-09-11 19:38:03.967,1789166283.9671047,126
2026-09-11 19:38:03.974,1789166283.974797,128
2026-09-11 19:38:03.982,1789166283.9824893,121
2026-09-11 19:38:03.990,1789166283.9901817,89
2026-09-11 19:38:03.997,1789166283.997874,53
2026-09-11 19:38:04.005,1789166284.0055664,26
2026-09-11 19:38:04.013,1789166284.0132587,-2
2026-09-11 19:38:04.020,1789166284.020951,-41
2026-09-11 19:38:04.028,1789166284.0286431,-70
2026-09-11 19:38:04.036,1789166284.0363355,-87
2026-09-11 19:38:04.044,1789166284.0440278,-97
2026-09-11 19:38:04.051,1789166284.0517201,-99
2026-09-11 19:38:04.059,1789166284.0594125,-101
2026-09-11 19:38:04.067,1789166284.0671048,-84
2026-09-11 19:38:04.074,1789166284.0747972,-58
2026-09-11 19:38:04.082,1789166284.0824895,-55
2026-09-11 19:38:04.090,1789166284.0901816,-58
2026-09-11 19:38:04.097,1789166284.097874,-46
2026-09-11 19:38:04.105,1789166284.1055663,-36
2026-09-11 19:38:04.113,1789166284.1132586,-33
2026-09-11 19:38:04.120,1789166284.120951,-41
2026-09-11 19:38:04.128,1789166284.1286433,-46
2026-09-11 19:38:04.136,1789166284.1363356,-38
2026-09-11 19:38:04.144,1789166284.144028,-36
2026-09-11 19:38:04.151,1789166284.1517203,-48
2026-09-11 19:38:04.159,1789166284.1594124,-50
2026-09-11 19:38:04.167,1789166284.1671047,-50
2026-09-11 19:38:04.174,1789166284.174797,-55
2026-09-11 19:38:04.181,1789166284.1819277,-36
2026-09-11 19:38:04.189,1789166284.18962,-26
2026-09-11 19:38:04.197,1789166284.1973124,-24
2026-09-11 19:38:04.205,1789166284.2050047,4
2026-09-11 19:38:04.212,1789166284.212697,9
2026-09-11 19:38:04.220,1789166284.2203891,-7
2026-09-11 19:38:04.228,1789166284.2280815,-7
2026-09-11 19:38:04.235,1789166284.2357738,-31
2026-09-11 19:38:04.243,1789166284.2434661,-63
2026-09-11 19:38:04.251,1789166284.2511585,-53
2026-09-11 19:38:04.258,1789166284.2588508,-38
2026-09-11 19:38:04.266,1789166284.2665431,-41
2026-09-11 19:38:04.274,1789166284.2742355,-26
2026-09-11 19:38:04.281,1789166284.2819276,-21
2026-09-11 19:38:04.289,1789166284.28962,-46
2026-09-11 19:38:04.297,1789166284.2973123,-58
2026-09-11 19:38:04.305,1789166284.3050046,-31
2026-09-11 19:38:04.312,1789166284.312697,87
2026-09-11 19:38:04.320,1789166284.3203893,368
2026-09-11 19:38:04.328,1789166284.3280816,737
2026-09-11 19:38:04.335,1789166284.335774,928
2026-09-11 19:38:04.343,1789166284.343466,535
2026-09-11 19:38:04.351,1789166284.3511584,-286
2026-09-11 19:38:04.358,1789166284.3588507,-526
2026-09-11 19:38:04.366,1789166284.366543,-135
2026-09-11 19:38:04.374,1789166284.3742354,-24
2026-09-11 19:38:04.381,1789166284.3819277,-135
2026-09-11 19:38:04.389,1789166284.38962,-58
2026-09-11 19:38:04.397,1789166284.3973124,-2
2026-09-11 19:38:04.405,1789166284.4050045,-58
2026-09-11 19:38:04.412,1789166284.4126968,-46
2026-09-11 19:38:04.420,1789166284.4203892,-7
2026-09-11 19:38:04.428,1789166284.4280815,-19
2026-09-11 19:38:04.435,1789166284.4357738,-2
2026-09-11 19:38:04.443,1789166284.4434662,41
2026-09-11 19:38:04.451,1789166284.4511585,38
2026-09-11 19:38:04.458,1789166284.4588509,26
2026-09-11 19:38:04.466,1789166284.466543,50
2026-09-11 19:38:04.474,1789166284.4742353,75
2026-09-11 19:38:04.481,1789166284.4819276,82
2026-09-11 19:38:04.489,1789166284.48962,94
2026-09-11 19:38:04.497,1789166284.4973123,113
2026-09-11 19:38:04.505,1789166284.5050046,138
2026-09-11 19:38:04.512,1789166284.512697,157
2026-09-11 19:38:04.520,1789166284.5203893,162
2026-09-11 19:38:04.528,1789166284.5280814,167
2026-09-11 19:38:04.535,1789166284.5357738,174
2026-09-11 19:38:04.543,1789166284.543466,167
2026-09-11 19:38:04.551,1789166284.5511584,155
2026-09-11 19:38:04.558,1789166284.5588508,152
2026-09-11 19:38:04.566,1789166284.566543,138
2026-09-11 19:38:04.574,1789166284.5742354,99
2026-09-11 19:38:04.581,1789166284.5819278,53
2026-09-11 19:38:04.589,1789166284.5896199,21
2026-09-11 19:38:04.597,1789166284.5973122,-2
2026-09-11 19:38:04.605,1789166284.6050045,-31
2026-09-11 19:38:04.612,1789166284.612697,-53
2026-09-11 19:38:04.620,1789166284.6203892,-65
2026-09-11 19:38:04.628,1789166284.6280816,-72
2026-09-11 19:38:04.635,1789166284.635774,-75
2026-09-11 19:38:04.643,1789166284.6434662,-65
2026-09-11 19:38:04.651,1789166284.6511583,-48
2026-09-11 19:38:04.658,1789166284.6588507,-36
2026-09-11 19:38:04.666,1789166284.666543,-29
2026-09-11 19:38:04.674,1789166284.6742353,-21
2026-09-11 19:38:04.681,1789166284.6819277,-14
2026-09-11 19:38:04.689,1789166284.68962,-4
2026-09-11 19:38:04.697,1789166284.6973124,0
2026-09-11 19:38:04.705,1789166284.7050047,0
2026-09-11 19:38:04.712,1789166284.712697,0
2026-09-11 19:38:04.720,1789166284.7203891,2
2026-09-11 19:38:04.728,1789166284.7280815,0
2026-09-11 19:38:04.735,1789166284.7357738,-9
2026-09-11 19:38:04.742,1789166284.7429044,-14
2026-09-11 19:38:04.750,1789166284.7505968,-12
2026-09-11 19:38:04.758,1789166284.758289,-9
2026-09-11 19:38:04.765,1789166284.7659814,-2
2026-09-11 19:38:04.773,1789166284.7736738,12
2026-09-11 19:38:04.781,1789166284.7813659,29
2026-09-11 19:38:04.789,1789166284.7890582,38
2026-09-11 19:38:04.796,1789166284.7967505,38
2026-09-11 19:38:04.804,1789166284.804443,19
2026-09-11 19:38:04.812,1789166284.8121352,-4
2026-09-11 19:38:04.819,1789166284.8198276,-16
2026-09-11 19:38:04.827,1789166284.82752,-14
2026-09-11 19:38:04.835,1789166284.8352122,-9
2026-09-11 19:38:04.842,1789166284.8429043,-2
2026-09-11 19:38:04.850,1789166284.8505967,-2
2026-09-11 19:38:04.858,1789166284.858289,-4
2026-09-11 19:38:04.865,1789166284.8659813,-2
2026-09-11 19:38:04.873,1789166284.8736737,-4
2026-09-11 19:38:04.881,1789166284.881366,4
2026-09-11 19:38:04.889,1789166284.8890584,111
2026-09-11 19:38:04.896,1789166284.8967507,378
2026-09-11 19:38:04.904,1789166284.9044428,727
2026-09-11 19:38:04.912,1789166284.9121351,953
2026-09-11 19:38:04.919,1789166284.9198275,642
2026-09-11 19:38:04.927,1789166284.9275198,-147
2026-09-11 19:38:04.935,1789166284.9352121,-443
2026-09-11 19:38:04.942,1789166284.9429045,-97
2026-09-11 19:38:04.950,1789166284.9505968,14
2026-09-11 19:38:04.958,1789166284.9582891,-116
2026-09-11 19:38:04.965,1789166284.9659812,-67
2026-09-11 19:38:04.973,1789166284.9736736,-9
2026-09-11 19:38:04.981,1789166284.981366,-48
2026-09-11 19:38:04.989,1789166284.9890583,-38
2026-09-11 19:38:04.996,1789166284.9967506,-9
2026-09-11 19:38:05.004,1789166285.004443,-12
2026-09-11 19:38:05.012,1789166285.0121353,-7
2026-09-11 19:38:05.019,1789166285.0198276,14
2026-09-11 19:38:05.027,1789166285.0275197,19
2026-09-11 19:38:05.035,1789166285.035212,24
2026-09-11 19:38:05.042,1789166285.0429044,36
2026-09-11 19:38:05.050,1789166285.0505967,43
2026-09-11 19:38:05.058,1789166285.058289,48
2026-09-11 19:38:05.065,1789166285.0659814,63
2026-09-11 19:38:05.073,1789166285.0736737,80
2026-09-11 19:38:05.081,1789166285.081366,89
2026-09-11 19:38:05.089,1789166285.0890582,97
2026-09-11 19:38:05.096,1789166285.0967505,99
2026-09-11 19:38:05.104,1789166285.1044428,99
2026-09-11 19:38:05.112,1789166285.1121352,99
2026-09-11 19:38:05.119,1789166285.1198275,101
2026-09-11 19:38:05.127,1789166285.1275198,92
2026-09-11 19:38:05.135,1789166285.1352122,80
2026-09-11 19:38:05.142,1789166285.1429045,72
2026-09-11 19:38:05.150,1789166285.1505966,63
2026-09-11 19:38:05.158,1789166285.158289,38
2026-09-11 19:38:05.165,1789166285.1659813,9
2026-09-11 19:38:05.173,1789166285.1736736,-9
2026-09-11 19:38:05.181,1789166285.181366,-21
2026-09-11 19:38:05.189,1789166285.1890583,-36
2026-09-11 19:38:05.196,1789166285.1967506,-46
2026-09-11 19:38:05.204,1789166285.204443,-48
2026-09-11 19:38:05.212,1789166285.212135,-46
2026-09-11 19:38:05.219,1789166285.2198274,-38
2026-09-11 19:38:05.227,1789166285.2275198,-31
2026-09-11 19:38:05.235,1789166285.235212,-21
2026-09-11 19:38:05.242,1789166285.2429044,-12
2026-09-11 19:38:05.250,1789166285.2505968,-4
2026-09-11 19:38:05.258,1789166285.258289,0
2026-09-11 19:38:05.265,1789166285.2659814,2
2026-09-11 19:38:05.273,1789166285.2736738,0
2026-09-11 19:38:05.281,1789166285.2813659,0
2026-09-11 19:38:05.289,1789166285.2890582,0
2026-09-11 19:38:05.296,1789166285.2967505,-2
2026-09-11 19:38:05.303,1789166285.3038814,-14
2026-09-11 19:38:05.311,1789166285.3115737,-24
2026-09-11 19:38:05.319,1789166285.319266,-16
2026-09-11 19:38:05.326,1789166285.3269584,-7
2026-09-11 19:38:05.334,1789166285.3346508,-9
2026-09-11 19:38:05.342,1789166285.3423429,2
2026-09-11 19:38:05.350,1789166285.3500352,26
2026-09-11 19:38:05.357,1789166285.3577275,38
2026-09-11 19:38:05.365,1789166285.3654199,33
2026-09-11 19:38:05.373,1789166285.3731122,21
2026-09-11 19:38:05.380,1789166285.3808045,7
2026-09-11 19:38:05.388,1789166285.3884969,-12
2026-09-11 19:38:05.396,1789166285.3961892,-19
2026-09-11 19:38:05.403,1789166285.4038813,-19
2026-09-11 19:38:05.411,1789166285.4115736,-16
2026-09-11 19:38:05.419,1789166285.419266,-14
2026-09-11 19:38:05.426,1789166285.4269583,-12
2026-09-11 19:38:05.434,1789166285.4346507,-16
2026-09-11 19:38:05.442,1789166285.442343,-19
2026-09-11 19:38:05.450,1789166285.4500353,-7
2026-09-11 19:38:05.457,1789166285.4577277,72
2026-09-11 19:38:05.465,1789166285.4654198,274
2026-09-11 19:38:05.473,1789166285.473112,594
2026-09-11 19:38:05.480,1789166285.4808044,948
2026-09-11 19:38:05.488,1789166285.4884968,880
2026-09-11 19:38:05.496,1789166285.496189,121
2026-09-11 19:38:05.503,1789166285.5038815,-421
2026-09-11 19:38:05.511,1789166285.5115738,-184
2026-09-11 19:38:05.519,1789166285.5192661,21
2026-09-11 19:38:05.526,1789166285.5269582,-109
2026-09-11 19:38:05.534,1789166285.5346506,-116
2026-09-11 19:38:05.542,1789166285.542343,-33
2026-09-11 19:38:05.550,1789166285.5500352,-55
2026-09-11 19:38:05.557,1789166285.5577276,-65
2026-09-11 19:38:05.565,1789166285.56542,-29
2026-09-11 19:38:05.573,1789166285.5731122,-21
2026-09-11 19:38:05.580,1789166285.5808046,-21
2026-09-11 19:38:05.588,1789166285.5884967,-7
2026-09-11 19:38:05.596,1789166285.596189,0
2026-09-11 19:38:05.603,1789166285.6038814,2
2026-09-11 19:38:05.611,1789166285.6115737,14
2026-09-11 19:38:05.619,1789166285.619266,26
2026-09-11 19:38:05.626,1789166285.6269584,33
2026-09-11 19:38:05.634,1789166285.6346507,43
2026-09-11 19:38:05.642,1789166285.642343,58
2026-09-11 19:38:05.650,1789166285.6500351,65
2026-09-11 19:38:05.657,1789166285.6577275,70
2026-09-11 19:38:05.665,1789166285.6654198,77
2026-09-11 19:38:05.673,1789166285.6731122,82
2026-09-11 19:38:05.680,1789166285.6808045,75
2026-09-11 19:38:05.688,1789166285.6884968,60
2026-09-11 19:38:05.696,1789166285.6961892,58
2026-09-11 19:38:05.703,1789166285.7038815,58
2026-09-11 19:38:05.711,1789166285.7115736,50
2026-09-11 19:38:05.719,1789166285.719266,41
2026-09-11 19:38:05.726,1789166285.7269583,29
2026-09-11 19:38:05.734,1789166285.7346506,12
2026-09-11 19:38:05.742,1789166285.742343,-2
2026-09-11 19:38:05.750,1789166285.7500353,-16
2026-09-11 19:38:05.757,1789166285.7577276,-26
2026-09-11 19:38:05.765,1789166285.76542,-31
2026-09-11 19:38:05.773,1789166285.773112,-33
2026-09-11 19:38:05.780,1789166285.7808044,-31
2026-09-11 19:38:05.788,1789166285.7884967,-21
2026-09-11 19:38:05.796,1789166285.796189,-14
2026-09-11 19:38:05.803,1789166285.8038814,-4
2026-09-11 19:38:05.811,1789166285.8115737,4
2026-09-11 19:38:05.819,1789166285.819266,7
2026-09-11 19:38:05.826,1789166285.8269584,7
2026-09-11 19:38:05.834,1789166285.8346508,9
2026-09-11 19:38:05.842,1789166285.8423429,12
2026-09-11 19:38:05.850,1789166285.8500352,14
2026-09-11 19:38:05.857,1789166285.8577275,16
2026-09-11 19:38:05.864,1789166285.864858,19
2026-09-11 19:38:05.872,1789166285.8725502,14
2026-09-11 19:38:05.880,1789166285.8802426,4
2026-09-11 19:38:05.887,1789166285.887935,-2
2026-09-11 19:38:05.895,1789166285.8956273,2
2026-09-11 19:38:05.903,1789166285.9033194,9
2026-09-11 19:38:05.911,1789166285.9110117,19
2026-09-11 19:38:05.918,1789166285.918704,38
2026-09-11 19:38:05.926,1789166285.9263964,63
2026-09-11 19:38:05.934,1789166285.9340887,75
2026-09-11 19:38:05.941,1789166285.941781,67
2026-09-11 19:38:05.949,1789166285.9494734,53
2026-09-11 19:38:05.957,1789166285.9571657,33
2026-09-11 19:38:05.964,1789166285.9648578,21
2026-09-11 19:38:05.972,1789166285.9725502,19
2026-09-11 19:38:05.980,1789166285.9802425,14
2026-09-11 19:38:05.987,1789166285.9879348,14
2026-09-11 19:38:05.995,1789166285.9956272,19
2026-09-11 19:38:06.003,1789166286.0033195,21
2026-09-11 19:38:06.011,1789166286.0110118,19
2026-09-11 19:38:06.018,1789166286.0187042,16
2026-09-11 19:38:06.026,1789166286.0263963,29
2026-09-11 19:38:06.034,1789166286.0340886,123
2026-09-11 19:38:06.041,1789166286.041781,329
2026-09-11 19:38:06.049,1789166286.0494733,635
2026-09-11 19:38:06.057,1789166286.0571656,970
2026-09-11 19:38:06.064,1789166286.064858,829
2026-09-11 19:38:06.072,1789166286.0725503,41
2026-09-11 19:38:06.080,1789166286.0802426,-390
2026-09-11 19:38:06.087,1789166286.0879347,-94
2026-09-11 19:38:06.095,1789166286.095627,53
2026-09-11 19:38:06.103,1789166286.1033194,-82
2026-09-11 19:38:06.111,1789166286.1110117,-58
2026-09-11 19:38:06.118,1789166286.118704,9
2026-09-11 19:38:06.126,1789166286.1263964,-19
2026-09-11 19:38:06.134,1789166286.1340888,-19
2026-09-11 19:38:06.141,1789166286.141781,14
2026-09-11 19:38:06.149,1789166286.1494732,14
2026-09-11 19:38:06.157,1789166286.1571655,12
2026-09-11 19:38:06.164,1789166286.1648579,26
2026-09-11 19:38:06.172,1789166286.1725502,38
2026-09-11 19:38:06.180,1789166286.1802425,43
2026-09-11 19:38:06.187,1789166286.1879349,50
2026-09-11 19:38:06.195,1789166286.1956272,55
2026-09-11 19:38:06.203,1789166286.2033195,63
2026-09-11 19:38:06.211,1789166286.2110116,75
2026-09-11 19:38:06.218,1789166286.218704,84
2026-09-11 19:38:06.226,1789166286.2263963,89
2026-09-11 19:38:06.234,1789166286.2340887,92
2026-09-11 19:38:06.241,1789166286.241781,99
2026-09-11 19:38:06.249,1789166286.2494733,101
2026-09-11 19:38:06.257,1789166286.2571657,97
2026-09-11 19:38:06.264,1789166286.264858,89
2026-09-11 19:38:06.272,1789166286.27255,82
2026-09-11 19:38:06.280,1789166286.2802424,75
2026-09-11 19:38:06.287,1789166286.2879348,70
2026-09-11 19:38:06.295,1789166286.295627,63
2026-09-11 19:38:06.303,1789166286.3033195,48
2026-09-11 19:38:06.311,1789166286.3110118,29
2026-09-11 19:38:06.318,1789166286.3187041,9
2026-09-11 19:38:06.326,1789166286.3263965,-9
2026-09-11 19:38:06.334,1789166286.3340886,-21
2026-09-11 19:38:06.341,1789166286.341781,-26
2026-09-11 19:38:06.349,1789166286.3494732,-29
2026-09-11 19:38:06.357,1789166286.3571656,-24
2026-09-11 19:38:06.364,1789166286.364858,-16
2026-09-11 19:38:06.372,1789166286.3725502,-9
2026-09-11 19:38:06.380,1789166286.3802426,-4
2026-09-11 19:38:06.387,1789166286.387935,0
2026-09-11 19:38:06.395,1789166286.3956273,4
2026-09-11 19:38:06.403,1789166286.4033194,2
2026-09-11 19:38:06.411,1789166286.4110117,0
2026-09-11 19:38:06.418,1789166286.418704,2
2026-09-11 19:38:06.425,1789166286.425835,0
2026-09-11 19:38:06.433,1789166286.4335272,-7
2026-09-11 19:38:06.441,1789166286.4412196,4
2026-09-11 19:38:06.448,1789166286.448912,12
2026-09-11 19:38:06.456,1789166286.4566042,-9
2026-09-11 19:38:06.464,1789166286.4642963,-26
2026-09-11 19:38:06.471,1789166286.4719887,-24
2026-09-11 19:38:06.479,1789166286.479681,-14
2026-09-11 19:38:06.487,1789166286.4873734,-2
2026-09-11 19:38:06.495,1789166286.4950657,12
2026-09-11 19:38:06.502,1789166286.502758,31
2026-09-11 19:38:06.510,1789166286.5104504,50
2026-09-11 19:38:06.518,1789166286.5181427,46
2026-09-11 19:38:06.525,1789166286.5258348,16
2026-09-11 19:38:06.533,1789166286.5335271,-14
2026-09-11 19:38:06.541,1789166286.5412195,-29
2026-09-11 19:38:06.548,1789166286.5489118,-36
2026-09-11 19:38:06.556,1789166286.5566041,-36
2026-09-11 19:38:06.564,1789166286.5642965,-29
2026-09-11 19:38:06.571,1789166286.5719888,-33
2026-09-11 19:38:06.579,1789166286.5796812,-38
2026-09-11 19:38:06.587,1789166286.5873733,-33
2026-09-11 19:38:06.595,1789166286.5950656,-46
2026-09-11 19:38:06.602,1789166286.602758,-48
2026-09-11 19:38:06.610,1789166286.6104503,43
2026-09-11 19:38:06.618,1789166286.6181426,247
2026-09-11 19:38:06.625,1789166286.625835,528
2026-09-11 19:38:06.633,1789166286.6335273,819
2026-09-11 19:38:06.641,1789166286.6412196,693
2026-09-11 19:38:06.648,1789166286.6489117,-46
2026-09-11 19:38:06.656,1789166286.656604,-487
2026-09-11 19:38:06.664,1789166286.6642964,-201
2026-09-11 19:38:06.671,1789166286.6719887,-14
2026-09-11 19:38:06.679,1789166286.679681,-126
2026-09-11 19:38:06.687,1789166286.6873734,-109
2026-09-11 19:38:06.695,1789166286.6950657,-48
2026-09-11 19:38:06.702,1789166286.702758,-77
2026-09-11 19:38:06.710,1789166286.7104502,-70
2026-09-11 19:38:06.718,1789166286.7181425,-29
2026-09-11 19:38:06.725,1789166286.7258348,-26
2026-09-11 19:38:06.733,1789166286.7335272,-29
2026-09-11 19:38:06.741,1789166286.7412195,-14
2026-09-11 19:38:06.748,1789166286.7489119,-4
2026-09-11 19:38:06.756,1789166286.7566042,7
2026-09-11 19:38:06.764,1789166286.7642965,19
2026-09-11 19:38:06.771,1789166286.7719886,19
2026-09-11 19:38:06.779,1789166286.779681,26
2026-09-11 19:38:06.787,1789166286.7873733,53
2026-09-11 19:38:06.795,1789166286.7950656,72
2026-09-11 19:38:06.802,1789166286.802758,75
2026-09-11 19:38:06.810,1789166286.8104503,87
2026-09-11 19:38:06.818,1789166286.8181427,99
2026-09-11 19:38:06.825,1789166286.825835,99
2026-09-11 19:38:06.833,1789166286.833527,99
2026-09-11 19:38:06.841,1789166286.8412194,99
2026-09-11 19:38:06.848,1789166286.8489118,92
2026-09-11 19:38:06.856,1789166286.856604,92
2026-09-11 19:38:06.864,1789166286.8642964,89
2026-09-11 19:38:06.871,1789166286.8719888,60
2026-09-11 19:38:06.879,1789166286.879681,24
2026-09-11 19:38:06.887,1789166286.8873734,4
2026-09-11 19:38:06.895,1789166286.8950655,-19
2026-09-11 19:38:06.902,1789166286.902758,-55
2026-09-11 19:38:06.910,1789166286.9104502,-77
2026-09-11 19:38:06.918,1789166286.9181426,-80
2026-09-11 19:38:06.925,1789166286.925835,-84
2026-09-11 19:38:06.933,1789166286.9335272,-94
2026-09-11 19:38:06.941,1789166286.9412196,-94
2026-09-11 19:38:06.948,1789166286.948912,-75
2026-09-11 19:38:06.956,1789166286.9566042,-55
2026-09-11 19:38:06.964,1789166286.9642963,-48
2026-09-11 19:38:06.971,1789166286.9719887,-43
2026-09-11 19:38:06.979,1789166286.979681,-38
2026-09-11 19:38:06.986,1789166286.9868116,-38
2026-09-11 19:38:06.994,1789166286.994504,-36
2026-09-11 19:38:07.002,1789166287.0021963,-31
2026-09-11 19:38:07.009,1789166287.0098886,-38
2026-09-11 19:38:07.017,1789166287.017581,-53
2026-09-11 19:38:07.025,1789166287.025273,-48
2026-09-11 19:38:07.032,1789166287.0329654,-31
2026-09-11 19:38:07.040,1789166287.0406578,-33
2026-09-11 19:38:07.048,1789166287.04835,-41
2026-09-11 19:38:07.056,1789166287.0560424,-26
2026-09-11 19:38:07.063,1789166287.0637348,-12
2026-09-11 19:38:07.071,1789166287.071427,-7
2026-09-11 19:38:07.079,1789166287.0791194,2
2026-09-11 19:38:07.086,1789166287.0868115,7
2026-09-11 19:38:07.094,1789166287.0945039,-16
2026-09-11 19:38:07.102,1789166287.1021962,-41
2026-09-11 19:38:07.109,1789166287.1098886,-38
2026-09-11 19:38:07.117,1789166287.117581,-41
2026-09-11 19:38:07.125,1789166287.1252732,-58
2026-09-11 19:38:07.132,1789166287.1329656,-50
2026-09-11 19:38:07.140,1789166287.140658,-36
2026-09-11 19:38:07.148,1789166287.14835,-36
2026-09-11 19:38:07.156,1789166287.1560423,-38
2026-09-11 19:38:07.163,1789166287.1637347,-46
2026-09-11 19:38:07.171,1789166287.171427,-36
2026-09-11 19:38:07.179,1789166287.1791193,87
2026-09-11 19:38:07.186,1789166287.1868117,388
2026-09-11 19:38:07.194,1789166287.194504,739
2026-09-11 19:38:07.202,1789166287.2021964,856
2026-09-11 19:38:07.209,1789166287.2098885,388
2026-09-11 19:38:07.217,1789166287.2175808,-378
2026-09-11 19:38:07.225,1789166287.2252731,-502
2026-09-11 19:38:07.232,1789166287.2329655,-101
2026-09-11 19:38:07.240,1789166287.2406578,-33
2026-09-11 19:38:07.248,1789166287.2483501,-143
2026-09-11 19:38:07.256,1789166287.2560425,-55
2026-09-11 19:38:07.263,1789166287.2637348,-7
2026-09-11 19:38:07.271,1789166287.271427,-60
2026-09-11 19:38:07.279,1789166287.2791193,-41
2026-09-11 19:38:07.286,1789166287.2868116,2
2026-09-11 19:38:07.294,1789166287.294504,-7
2026-09-11 19:38:07.302,1789166287.3021963,-2
2026-09-11 19:38:07.309,1789166287.3098886,14
2026-09-11 19:38:07.317,1789166287.317581,21
2026-09-11 19:38:07.325,1789166287.3252733,43
2026-09-11 19:38:07.332,1789166287.3329654,60
2026-09-11 19:38:07.340,1789166287.3406577,55
2026-09-11 19:38:07.348,1789166287.34835,75
2026-09-11 19:38:07.356,1789166287.3560424,101
2026-09-11 19:38:07.363,1789166287.3637347,113
2026-09-11 19:38:07.371,1789166287.371427,123
2026-09-11 19:38:07.379,1789166287.3791194,140
2026-09-11 19:38:07.386,1789166287.3868117,160
2026-09-11 19:38:07.394,1789166287.3945038,164
2026-09-11 19:38:07.402,1789166287.4021962,167
2026-09-11 19:38:07.409,1789166287.4098885,167
2026-09-11 19:38:07.417,1789166287.4175808,164
2026-09-11 19:38:07.425,1789166287.4252732,160
2026-09-11 19:38:07.432,1789166287.4329655,130
2026-09-11 19:38:07.440,1789166287.4406579,77
2026-09-11 19:38:07.448,1789166287.4483502,36
2026-09-11 19:38:07.456,1789166287.4560423,9
2026-09-11 19:38:07.463,1789166287.4637346,-16
2026-09-11 19:38:07.471,1789166287.471427,-48
2026-09-11 19:38:07.479,1789166287.4791193,-67
2026-09-11 19:38:07.486,1789166287.4868116,-70
2026-09-11 19:38:07.494,1789166287.494504,-75
2026-09-11 19:38:07.502,1789166287.5021963,-82
2026-09-11 19:38:07.509,1789166287.5098886,-70
2026-09-11 19:38:07.517,1789166287.517581,-50
2026-09-11 19:38:07.525,1789166287.525273,-41
2026-09-11 19:38:07.532,1789166287.5329654,-33
2026-09-11 19:38:07.540,1789166287.5406578,-26
2026-09-11 19:38:07.547,1789166287.5477884,-21
2026-09-11 19:38:07.555,1789166287.5554807,-16
2026-09-11 19:38:07.563,1789166287.563173,-12
2026-09-11 19:38:07.570,1789166287.5708654,-4
2026-09-11 19:38:07.578,1789166287.5785577,-2
2026-09-11 19:38:07.586,1789166287.5862498,-9
2026-09-11 19:38:07.593,1789166287.5939422,-12
2026-09-11 19:38:07.601,1789166287.6016345,-12
2026-09-11 19:38:07.609,1789166287.6093268,-7
2026-09-11 19:38:07.617,1789166287.6170192,-2
2026-09-11 19:38:07.624,1789166287.6247115,9
2026-09-11 19:38:07.632,1789166287.6324039,29
2026-09-11 19:38:07.640,1789166287.6400962,36
2026-09-11 19:38:07.647,1789166287.6477883,24
2026-09-11 19:38:07.655,1789166287.6554806,4
2026-09-11 19:38:07.663,1789166287.663173,-12
2026-09-11 19:38:07.670,1789166287.6708653,-19
2026-09-11 19:38:07.678,1789166287.6785576,-19
2026-09-11 19:38:07.686,1789166287.68625,-19
2026-09-11 19:38:07.693,1789166287.6939423,-19
2026-09-11 19:38:07.701,1789166287.7016346,-12
2026-09-11 19:38:07.709,1789166287.7093267,-4
2026-09-11 19:38:07.717,1789166287.717019,-7
2026-09-11 19:38:07.724,1789166287.7247114,-12
2026-09-11 19:38:07.732,1789166287.7324038,0
2026-09-11 19:38:07.740,1789166287.740096,118
2026-09-11 19:38:07.747,1789166287.7477884,404
2026-09-11 19:38:07.755,1789166287.7554808,746
2026-09-11 19:38:07.763,1789166287.763173,885
2026-09-11 19:38:07.770,1789166287.7708652,443
2026-09-11 19:38:07.778,1789166287.7785575,-317
2026-09-11 19:38:07.786,1789166287.7862499,-429
2026-09-11 19:38:07.793,1789166287.7939422,-38
2026-09-11 19:38:07.801,1789166287.8016346,2
2026-09-11 19:38:07.809,1789166287.809327,-113
2026-09-11 19:38:07.817,1789166287.8170192,-33
2026-09-11 19:38:07.824,1789166287.8247116,0
2026-09-11 19:38:07.832,1789166287.8324037,-46
2026-09-11 19:38:07.840,1789166287.840096,-21
2026-09-11 19:38:07.847,1789166287.8477883,12
2026-09-11 19:38:07.855,1789166287.8554807,2
2026-09-11 19:38:07.863,1789166287.863173,9
2026-09-11 19:38:07.870,1789166287.8708653,29
2026-09-11 19:38:07.878,1789166287.8785577,36
2026-09-11 19:38:07.886,1789166287.88625,43
2026-09-11 19:38:07.893,1789166287.893942,60
2026-09-11 19:38:07.901,1789166287.9016345,70
2026-09-11 19:38:07.909,1789166287.9093268,72
2026-09-11 19:38:07.917,1789166287.9170191,84
2026-09-11 19:38:07.924,1789166287.9247115,99
2026-09-11 19:38:07.932,1789166287.9324038,109
2026-09-11 19:38:07.940,1789166287.9400961,121
2026-09-11 19:38:07.947,1789166287.9477885,130
2026-09-11 19:38:07.955,1789166287.9554806,130
2026-09-11 19:38:07.963,1789166287.963173,130
2026-09-11 19:38:07.970,1789166287.9708652,128
2026-09-11 19:38:07.978,1789166287.9785576,121
2026-09-11 19:38:07.986,1789166287.98625,109
2026-09-11 19:38:07.993,1789166287.9939423,94
2026-09-11 19:38:08.001,1789166288.0016346,72
2026-09-11 19:38:08.009,1789166288.009327,46
2026-09-11 19:38:08.017,1789166288.017019,16
2026-09-11 19:38:08.024,1789166288.0247114,-12
2026-09-11 19:38:08.032,1789166288.0324037,-33
2026-09-11 19:38:08.040,1789166288.040096,-46
2026-09-11 19:38:08.047,1789166288.0477884,-53
2026-09-11 19:38:08.055,1789166288.0554807,-55
2026-09-11 19:38:08.063,1789166288.063173,-46
2026-09-11 19:38:08.070,1789166288.0708654,-33
2026-09-11 19:38:08.078,1789166288.0785577,-29
2026-09-11 19:38:08.086,1789166288.0862498,-24
2026-09-11 19:38:08.093,1789166288.0939422,-16
2026-09-11 19:38:08.101,1789166288.1016345,-9
2026-09-11 19:38:08.108,1789166288.1087754,-4
2026-09-11 19:38:08.116,1789166288.1164677,-2
2026-09-11 19:38:08.124,1789166288.12416,-2
2026-09-11 19:38:08.131,1789166288.1318524,0
2026-09-11 19:38:08.139,1789166288.1395447,-2
2026-09-11 19:38:08.147,1789166288.1472368,-12
2026-09-11 19:38:08.154,1789166288.1549292,-19
2026-09-11 19:38:08.162,1789166288.1626215,-12
2026-09-11 19:38:08.170,1789166288.1703138,-9
2026-09-11 19:38:08.178,1789166288.1780062,-7
2026-09-11 19:38:08.185,1789166288.1856985,7
2026-09-11 19:38:08.193,1789166288.1933908,29
2026-09-11 19:38:08.201,1789166288.2010832,38
2026-09-11 19:38:08.208,1789166288.2087753,33
2026-09-11 19:38:08.216,1789166288.2164676,16
2026-09-11 19:38:08.224,1789166288.22416,0
2026-09-11 19:38:08.231,1789166288.2318523,-12
2026-09-11 19:38:08.239,1789166288.2395446,-14
2026-09-11 19:38:08.247,1789166288.247237,-16
2026-09-11 19:38:08.254,1789166288.2549293,-16
2026-09-11 19:38:08.262,1789166288.2626216,-16
2026-09-11 19:38:08.270,1789166288.2703137,-14
2026-09-11 19:38:08.278,1789166288.278006,-16
2026-09-11 19:38:08.285,1789166288.2856984,-21
2026-09-11 19:38:08.293,1789166288.2933908,-2
2026-09-11 19:38:08.301,1789166288.301083,101
2026-09-11 19:38:08.308,1789166288.3087754,327
2026-09-11 19:38:08.316,1789166288.3164678,662
2026-09-11 19:38:08.324,1789166288.32416,955
2026-09-11 19:38:08.331,1789166288.3318522,703
2026-09-11 19:38:08.339,1789166288.3395445,-97
2026-09-11 19:38:08.347,1789166288.3472369,-421
2026-09-11 19:38:08.354,1789166288.3549292,-97
2026-09-11 19:38:08.362,1789166288.3626215,0
2026-09-11 19:38:08.370,1789166288.370314,-135
2026-09-11 19:38:08.378,1789166288.3780062,-89
2026-09-11 19:38:08.385,1789166288.3856986,-29
2026-09-11 19:38:08.393,1789166288.3933907,-65
2026-09-11 19:38:08.401,1789166288.401083,-58
2026-09-11 19:38:08.408,1789166288.4087753,-21
2026-09-11 19:38:08.416,1789166288.4164677,-26
2026-09-11 19:38:08.424,1789166288.42416,-26
2026-09-11 19:38:08.431,1789166288.4318523,-7
2026-09-11 19:38:08.439,1789166288.4395447,0
2026-09-11 19:38:08.447,1789166288.447237,2
2026-09-11 19:38:08.454,1789166288.454929,12
2026-09-11 19:38:08.462,1789166288.4626215,21
2026-09-11 19:38:08.470,1789166288.4703138,31
2026-09-11 19:38:08.478,1789166288.4780061,38
2026-09-11 19:38:08.485,1789166288.4856985,48
2026-09-11 19:38:08.493,1789166288.4933908,58
2026-09-11 19:38:08.501,1789166288.5010831,65
2026-09-11 19:38:08.508,1789166288.5087755,67
2026-09-11 19:38:08.516,1789166288.5164676,67
2026-09-11 19:38:08.524,1789166288.52416,63
2026-09-11 19:38:08.531,1789166288.5318522,53
2026-09-11 19:38:08.539,1789166288.5395446,46
2026-09-11 19:38:08.547,1789166288.547237,41
2026-09-11 19:38:08.554,1789166288.5549293,33
2026-09-11 19:38:08.562,1789166288.5626216,24
2026-09-11 19:38:08.570,1789166288.570314,14
2026-09-11 19:38:08.578,1789166288.578006,-4
2026-09-11 19:38:08.585,1789166288.5856984,-21
2026-09-11 19:38:08.593,1789166288.5933907,-31
2026-09-11 19:38:08.601,1789166288.601083,-36
2026-09-11 19:38:08.608,1789166288.6087754,-41
2026-09-11 19:38:08.616,1789166288.6164677,-43
2026-09-11 19:38:08.624,1789166288.62416,-38
2026-09-11 19:38:08.631,1789166288.6318524,-26
2026-09-11 19:38:08.639,1789166288.6395447,-19
2026-09-11 19:38:08.647,1789166288.6472368,-12
2026-09-11 19:38:08.654,1789166288.6549292,-7
2026-09-11 19:38:08.662,1789166288.6626215,-2
2026-09-11 19:38:08.669,1789166288.669747,0
2026-09-11 19:38:08.677,1789166288.6774395,0
2026-09-11 19:38:08.685,1789166288.6851318,0
2026-09-11 19:38:08.692,1789166288.6928241,0
2026-09-11 19:38:08.700,1789166288.7005165,0
2026-09-11 19:38:08.708,1789166288.7082086,-2
2026-09-11 19:38:08.715,1789166288.715901,-7
2026-09-11 19:38:08.723,1789166288.7235932,-16
2026-09-11 19:38:08.731,1789166288.7312856,-21
2026-09-11 19:38:08.738,1789166288.738978,-19
2026-09-11 19:38:08.746,1789166288.7466702,-12
2026-09-11 19:38:08.754,1789166288.7543626,-4
2026-09-11 19:38:08.762,1789166288.762055,14
2026-09-11 19:38:08.769,1789166288.769747,38
2026-09-11 19:38:08.777,1789166288.7774394,46
2026-09-11 19:38:08.785,1789166288.7851317,38
2026-09-11 19:38:08.792,1789166288.792824,24
2026-09-11 19:38:08.800,1789166288.8005164,7
2026-09-11 19:38:08.808,1789166288.8082087,-9
2026-09-11 19:38:08.815,1789166288.815901,-16
2026-09-11 19:38:08.823,1789166288.8235934,-16
2026-09-11 19:38:08.831,1789166288.8312855,-16
2026-09-11 19:38:08.838,1789166288.8389778,-16
2026-09-11 19:38:08.846,1789166288.8466702,-14
2026-09-11 19:38:08.854,1789166288.8543625,-14
2026-09-11 19:38:08.862,1789166288.8620548,-16
2026-09-11 19:38:08.869,1789166288.8697472,-2
2026-09-11 19:38:08.877,1789166288.8774395,97
2026-09-11 19:38:08.885,1789166288.8851318,298
2026-09-11 19:38:08.892,1789166288.892824,591
2026-09-11 19:38:08.900,1789166288.9005163,914
2026-09-11 19:38:08.908,1789166288.9082086,759
2026-09-11 19:38:08.915,1789166288.915901,-24
2026-09-11 19:38:08.923,1789166288.9235933,-421
2026-09-11 19:38:08.931,1789166288.9312856,-116
2026-09-11 19:38:08.938,1789166288.938978,14
2026-09-11 19:38:08.946,1789166288.9466703,-121
2026-09-11 19:38:08.954,1789166288.9543624,-87
2026-09-11 19:38:08.962,1789166288.9620547,-21
2026-09-11 19:38:08.969,1789166288.969747,-55
2026-09-11 19:38:08.977,1789166288.9774394,-55
2026-09-11 19:38:08.985,1789166288.9851317,-16
2026-09-11 19:38:08.992,1789166288.992824,-19
2026-09-11 19:38:09.000,1789166289.0005164,-19
2026-09-11 19:38:09.008,1789166289.0082088,0
2026-09-11 19:38:09.015,1789166289.0159009,4
2026-09-11 19:38:09.023,1789166289.0235932,7
2026-09-11 19:38:09.031,1789166289.0312855,21
2026-09-11 19:38:09.038,1789166289.0389779,33
2026-09-11 19:38:09.046,1789166289.0466702,36
2026-09-11 19:38:09.054,1789166289.0543625,43
2026-09-11 19:38:09.062,1789166289.0620549,55
2026-09-11 19:38:09.069,1789166289.0697472,60
2026-09-11 19:38:09.077,1789166289.0774393,65
2026-09-11 19:38:09.085,1789166289.0851316,72
2026-09-11 19:38:09.092,1789166289.092824,72
2026-09-11 19:38:09.100,1789166289.1005163,65
2026-09-11 19:38:09.108,1789166289.1082087,65
2026-09-11 19:38:09.115,1789166289.115901,60
2026-09-11 19:38:09.123,1789166289.1235933,50
2026-09-11 19:38:09.131,1789166289.1312857,46
2026-09-11 19:38:09.138,1789166289.1389778,43
2026-09-11 19:38:09.146,1789166289.14667,26
2026-09-11 19:38:09.154,1789166289.1543624,7
2026-09-11 19:38:09.162,1789166289.1620548,-4
2026-09-11 19:38:09.169,1789166289.169747,-16
2026-09-11 19:38:09.177,1789166289.1774395,-31
2026-09-11 19:38:09.185,1789166289.1851318,-36
2026-09-11 19:38:09.192,1789166289.1928241,-33
2026-09-11 19:38:09.200,1789166289.2005165,-33
2026-09-11 19:38:09.208,1789166289.2082086,-26
2026-09-11 19:38:09.215,1789166289.215901,-14
2026-09-11 19:38:09.223,1789166289.2235932,-9
2026-09-11 19:38:09.230,1789166289.2307189,-4
2026-09-11 19:38:09.238,1789166289.2384112,-4
2026-09-11 19:38:09.246,1789166289.2461035,-4
2026-09-11 19:38:09.253,1789166289.2537959,-2
2026-09-11 19:38:09.261,1789166289.2614882,0
2026-09-11 19:38:09.269,1789166289.2691803,0
2026-09-11 19:38:09.276,1789166289.2768726,-2
2026-09-11 19:38:09.284,1789166289.284565,-2
2026-09-11 19:38:09.292,1789166289.2922573,-4
2026-09-11 19:38:09.299,1789166289.2999496,-7
2026-09-11 19:38:09.307,1789166289.307642,-9
2026-09-11 19:38:09.315,1789166289.3153343,-16
2026-09-11 19:38:09.323,1789166289.3230267,-24
2026-09-11 19:38:09.330,1789166289.3307188,-21
2026-09-11 19:38:09.338,1789166289.338411,-14
2026-09-11 19:38:09.346,1789166289.3461034,-9
2026-09-11 19:38:09.353,1789166289.3537958,9
2026-09-11 19:38:09.361,1789166289.361488,38
2026-09-11 19:38:09.369,1789166289.3691804,50
2026-09-11 19:38:09.376,1789166289.3768728,41
2026-09-11 19:38:09.384,1789166289.384565,16
2026-09-11 19:38:09.392,1789166289.3922572,-7
2026-09-11 19:38:09.399,1789166289.3999496,-21
2026-09-11 19:38:09.407,1789166289.407642,-29
2026-09-11 19:38:09.415,1789166289.4153342,-31
2026-09-11 19:38:09.423,1789166289.4230266,-24
2026-09-11 19:38:09.430,1789166289.430719,-16
2026-09-11 19:38:09.438,1789166289.4384112,-21
2026-09-11 19:38:09.446,1789166289.4461036,-31
2026-09-11 19:38:09.453,1789166289.4537957,-36
2026-09-11 19:38:09.461,1789166289.461488,-24
2026-09-11 19:38:09.469,1789166289.4691803,75
2026-09-11 19:38:09.476,1789166289.4768727,288
2026-09-11 19:38:09.484,1789166289.484565,582
2026-09-11 19:38:09.492,1789166289.4922574,848
2026-09-11 19:38:09.499,1789166289.4999497,615
2026-09-11 19:38:09.507,1789166289.507642,-150
2026-09-11 19:38:09.515,1789166289.5153341,-468
2026-09-11 19:38:09.523,1789166289.5230265,-150
2026-09-11 19:38:09.530,1789166289.5307188,-36
2026-09-11 19:38:09.538,1789166289.5384111,-143
2026-09-11 19:38:09.546,1789166289.5461035,-99
2026-09-11 19:38:09.553,1789166289.5537958,-53
2026-09-11 19:38:09.561,1789166289.5614882,-89
2026-09-11 19:38:09.569,1789166289.5691805,-87
2026-09-11 19:38:09.576,1789166289.5768726,-53
2026-09-11 19:38:09.584,1789166289.584565,-43
2026-09-11 19:38:09.592,1789166289.5922573,-38
2026-09-11 19:38:09.599,1789166289.5999496,-29
2026-09-11 19:38:09.607,1789166289.607642,-21
2026-09-11 19:38:09.615,1789166289.6153343,-9
2026-09-11 19:38:09.623,1789166289.6230266,0
2026-09-11 19:38:09.630,1789166289.630719,2
2026-09-11 19:38:09.638,1789166289.638411,4
2026-09-11 19:38:09.646,1789166289.6461034,26
2026-09-11 19:38:09.653,1789166289.6537957,43
2026-09-11 19:38:09.661,1789166289.661488,50
2026-09-11 19:38:09.669,1789166289.6691804,58
2026-09-11 19:38:09.676,1789166289.6768727,67
2026-09-11 19:38:09.684,1789166289.684565,75
2026-09-11 19:38:09.692,1789166289.6922574,72
2026-09-11 19:38:09.699,1789166289.6999495,60
2026-09-11 19:38:09.707,1789166289.7076418,55
2026-09-11 19:38:09.715,1789166289.7153342,58
2026-09-11 19:38:09.723,1789166289.7230265,50
2026-09-11 19:38:09.730,1789166289.7307189,41
2026-09-11 19:38:09.738,1789166289.7384112,19
2026-09-11 19:38:09.746,1789166289.7461035,-16
2026-09-11 19:38:09.753,1789166289.7537959,-46
2026-09-11 19:38:09.761,1789166289.7614882,-55
2026-09-11 19:38:09.769,1789166289.7691803,-70
2026-09-11 19:38:09.776,1789166289.7768726,-89
2026-09-11 19:38:09.784,1789166289.784565,-101
2026-09-11 19:38:09.791,1789166289.7917259,-97
2026-09-11 19:38:09.799,1789166289.7994182,-77
2026-09-11 19:38:09.807,1789166289.8071105,-63
2026-09-11 19:38:09.814,1789166289.814803,-53
2026-09-11 19:38:09.822,1789166289.8224952,-50
2026-09-11 19:38:09.830,1789166289.8301873,-55
2026-09-11 19:38:09.837,1789166289.8378797,-50
2026-09-11 19:38:09.845,1789166289.845572,-33
2026-09-11 19:38:09.853,1789166289.8532643,-26
2026-09-11 19:38:09.860,1789166289.8609567,-29
2026-09-11 19:38:09.868,1789166289.868649,-36
2026-09-11 19:38:09.876,1789166289.8763413,-41
2026-09-11 19:38:09.884,1789166289.8840337,-43
2026-09-11 19:38:09.891,1789166289.8917258,-58
2026-09-11 19:38:09.899,1789166289.899418,-67
2026-09-11 19:38:09.907,1789166289.9071105,-53
2026-09-11 19:38:09.914,1789166289.9148028,-41
2026-09-11 19:38:09.922,1789166289.9224951,-36
2026-09-11 19:38:09.930,1789166289.9301875,-12
2026-09-11 19:38:09.937,1789166289.9378798,12
2026-09-11 19:38:09.945,1789166289.9455721,7
2026-09-11 19:38:09.953,1789166289.9532642,-4
2026-09-11 19:38:09.960,1789166289.9609566,-19
2026-09-11 19:38:09.968,1789166289.968649,-41
2026-09-11 19:38:09.976,1789166289.9763412,-53
2026-09-11 19:38:09.984,1789166289.9840336,-48
2026-09-11 19:38:09.991,1789166289.991726,-46
2026-09-11 19:38:09.999,1789166289.9994183,-43
2026-09-11 19:38:10.007,1789166290.0071106,-41
2026-09-11 19:38:10.014,1789166290.0148027,-53
2026-09-11 19:38:10.022,1789166290.022495,-60
2026-09-11 19:38:10.030,1789166290.0301874,-48
2026-09-11 19:38:10.037,1789166290.0378797,-29
2026-09-11 19:38:10.045,1789166290.045572,46
2026-09-11 19:38:10.053,1789166290.0532644,291
2026-09-11 19:38:10.060,1789166290.0609567,654
2026-09-11 19:38:10.068,1789166290.068649,863
2026-09-11 19:38:10.076,1789166290.0763412,499
2026-09-11 19:38:10.084,1789166290.0840335,-303
2026-09-11 19:38:10.091,1789166290.0917258,-557
2026-09-11 19:38:10.099,1789166290.0994182,-169
2026-09-11 19:38:10.107,1789166290.1071105,-38
2026-09-11 19:38:10.114,1789166290.1148028,-147
2026-09-11 19:38:10.122,1789166290.1224952,-75
2026-09-11 19:38:10.130,1789166290.1301875,-7
2026-09-11 19:38:10.137,1789166290.1378796,-53
2026-09-11 19:38:10.145,1789166290.145572,-50
2026-09-11 19:38:10.153,1789166290.1532643,-12
2026-09-11 19:38:10.160,1789166290.1609566,-7
2026-09-11 19:38:10.168,1789166290.168649,0
2026-09-11 19:38:10.176,1789166290.1763413,21
2026-09-11 19:38:10.184,1789166290.1840336,31
2026-09-11 19:38:10.191,1789166290.191726,41
2026-09-11 19:38:10.199,1789166290.199418,50
2026-09-11 19:38:10.207,1789166290.2071104,53
2026-09-11 19:38:10.214,1789166290.2148027,63
2026-09-11 19:38:10.222,1789166290.222495,89
2026-09-11 19:38:10.230,1789166290.2301874,121
2026-09-11 19:38:10.237,1789166290.2378798,133
2026-09-11 19:38:10.245,1789166290.245572,138
2026-09-11 19:38:10.253,1789166290.2532644,157
2026-09-11 19:38:10.260,1789166290.2609565,164
2026-09-11 19:38:10.268,1789166290.2686489,155
2026-09-11 19:38:10.276,1789166290.2763412,150
2026-09-11 19:38:10.284,1789166290.2840335,160
2026-09-11 19:38:10.291,1789166290.2917259,167
2026-09-11 19:38:10.299,1789166290.2994182,145
2026-09-11 19:38:10.307,1789166290.3071105,106
2026-09-11 19:38:10.314,1789166290.314803,65
2026-09-11 19:38:10.322,1789166290.3224952,21
2026-09-11 19:38:10.330,1789166290.3301873,-12
2026-09-11 19:38:10.337,1789166290.3378797,-36
2026-09-11 19:38:10.345,1789166290.345572,-72
2026-09-11 19:38:10.352,1789166290.3527029,-99
2026-09-11 19:38:10.360,1789166290.3603952,-99
2026-09-11 19:38:10.368,1789166290.3680875,-87
2026-09-11 19:38:10.375,1789166290.3757799,-72
2026-09-11 19:38:10.383,1789166290.3834722,-50
2026-09-11 19:38:10.391,1789166290.3911643,-38
2026-09-11 19:38:10.398,1789166290.3988566,-48
2026-09-11 19:38:10.406,1789166290.406549,-43
2026-09-11 19:38:10.414,1789166290.4142413,-31
2026-09-11 19:38:10.421,1789166290.4219337,-43
2026-09-11 19:38:10.429,1789166290.429626,-31
2026-09-11 19:38:10.437,1789166290.4373183,-7
2026-09-11 19:38:10.445,1789166290.4450107,-9
2026-09-11 19:38:10.452,1789166290.4527028,-19
2026-09-11 19:38:10.460,1789166290.460395,-16
2026-09-11 19:38:10.468,1789166290.4680874,-16
2026-09-11 19:38:10.475,1789166290.4757798,-16
2026-09-11 19:38:10.483,1789166290.483472,-19
2026-09-11 19:38:10.491,1789166290.4911644,-12
2026-09-11 19:38:10.498,1789166290.4988568,7
2026-09-11 19:38:10.506,1789166290.5065491,21
2026-09-11 19:38:10.514,1789166290.5142412,24
2026-09-11 19:38:10.521,1789166290.5219336,19
2026-09-11 19:38:10.529,1789166290.529626,0
2026-09-11 19:38:10.537,1789166290.5373182,-24
2026-09-11 19:38:10.545,1789166290.5450106,-31
2026-09-11 19:38:10.552,1789166290.552703,-26
2026-09-11 19:38:10.560,1789166290.5603952,-24
2026-09-11 19:38:10.568,1789166290.5680876,-26
2026-09-11 19:38:10.575,1789166290.5757797,-24
2026-09-11 19:38:10.583,1789166290.583472,-16
2026-09-11 19:38:10.591,1789166290.5911644,-16
2026-09-11 19:38:10.598,1789166290.5988567,-26
2026-09-11 19:38:10.606,1789166290.606549,-7
2026-09-11 19:38:10.614,1789166290.6142414,143
2026-09-11 19:38:10.621,1789166290.6219337,460
2026-09-11 19:38:10.629,1789166290.629626,793
2026-09-11 19:38:10.637,1789166290.6373181,848
2026-09-11 19:38:10.645,1789166290.6450105,303
2026-09-11 19:38:10.652,1789166290.6527028,-429
2026-09-11 19:38:10.660,1789166290.6603951,-434
2026-09-11 19:38:10.668,1789166290.6680875,-36
2026-09-11 19:38:10.675,1789166290.6757798,-21
2026-09-11 19:38:10.683,1789166290.6834722,-111
2026-09-11 19:38:10.691,1789166290.6911645,-26
2026-09-11 19:38:10.698,1789166290.6988566,4
2026-09-11 19:38:10.706,1789166290.706549,-26
2026-09-11 19:38:10.714,1789166290.7142413,-7
2026-09-11 19:38:10.721,1789166290.7219336,19
2026-09-11 19:38:10.729,1789166290.729626,14
2026-09-11 19:38:10.737,1789166290.7373183,21
2026-09-11 19:38:10.745,1789166290.7450106,38
2026-09-11 19:38:10.752,1789166290.752703,43
2026-09-11 19:38:10.760,1789166290.760395,48
2026-09-11 19:38:10.768,1789166290.7680874,60
2026-09-11 19:38:10.775,1789166290.7757797,77
2026-09-11 19:38:10.783,1789166290.783472,92
2026-09-11 19:38:10.791,1789166290.7911644,101
2026-09-11 19:38:10.798,1789166290.7988567,121
2026-09-11 19:38:10.806,1789166290.806549,140
2026-09-11 19:38:10.814,1789166290.8142414,143
2026-09-11 19:38:10.821,1789166290.8219335,138
2026-09-11 19:38:10.829,1789166290.8296258,147
2026-09-11 19:38:10.837,1789166290.8373182,155
2026-09-11 19:38:10.845,1789166290.8450105,145
2026-09-11 19:38:10.852,1789166290.8527029,133
2026-09-11 19:38:10.860,1789166290.8603952,126
2026-09-11 19:38:10.868,1789166290.8680875,113
2026-09-11 19:38:10.875,1789166290.8757799,87
2026-09-11 19:38:10.883,1789166290.8834722,53
2026-09-11 19:38:10.891,1789166290.8911643,16
2026-09-11 19:38:10.898,1789166290.8988566,-14
2026-09-11 19:38:10.906,1789166290.906549,-29
2026-09-11 19:38:10.913,1789166290.9136798,-41
2026-09-11 19:38:10.921,1789166290.9213722,-55
2026-09-11 19:38:10.929,1789166290.9290645,-58
2026-09-11 19:38:10.936,1789166290.9367568,-50
2026-09-11 19:38:10.944,1789166290.9444492,-43
2026-09-11 19:38:10.952,1789166290.9521413,-33
2026-09-11 19:38:10.959,1789166290.9598336,-24
2026-09-11 19:38:10.967,1789166290.967526,-19
2026-09-11 19:38:10.975,1789166290.9752183,-14
2026-09-11 19:38:10.982,1789166290.9829106,-9
2026-09-11 19:38:10.990,1789166290.990603,-4
2026-09-11 19:38:10.998,1789166290.9982953,0
2026-09-11 19:38:11.005,1789166291.0059876,0
2026-09-11 19:38:11.013,1789166291.0136797,0
2026-09-11 19:38:11.021,1789166291.021372,-4
2026-09-11 19:38:11.029,1789166291.0290644,-14
2026-09-11 19:38:11.036,1789166291.0367568,-16
2026-09-11 19:38:11.044,1789166291.044449,-9
2026-09-11 19:38:11.052,1789166291.0521414,-9
2026-09-11 19:38:11.059,1789166291.0598338,-7
2026-09-11 19:38:11.067,1789166291.067526,9
2026-09-11 19:38:11.075,1789166291.0752182,31
2026-09-11 19:38:11.082,1789166291.0829105,38
2026-09-11 19:38:11.090,1789166291.0906029,31
2026-09-11 19:38:11.098,1789166291.0982952,16
2026-09-11 19:38:11.105,1789166291.1059875,-4
2026-09-11 19:38:11.113,1789166291.11368,-19
2026-09-11 19:38:11.121,1789166291.1213722,-26
2026-09-11 19:38:11.129,1789166291.1290646,-21
2026-09-11 19:38:11.136,1789166291.1367567,-7
2026-09-11 19:38:11.144,1789166291.144449,-4
2026-09-11 19:38:11.152,1789166291.1521413,-14
2026-09-11 19:38:11.159,1789166291.1598337,-16
2026-09-11 19:38:11.167,1789166291.167526,-16
2026-09-11 19:38:11.175,1789166291.1752183,16
2026-09-11 19:38:11.182,1789166291.1829107,162
2026-09-11 19:38:11.190,1789166291.190603,431
2026-09-11 19:38:11.198,1789166291.198295,768
2026-09-11 19:38:11.205,1789166291.2059875,931
2026-09-11 19:38:11.213,1789166291.2136798,448
2026-09-11 19:38:11.221,1789166291.2213721,-317
2026-09-11 19:38:11.229,1789166291.2290645,-378
2026-09-11 19:38:11.236,1789166291.2367568,-29
2026-09-11 19:38:11.244,1789166291.2444491,-38
2026-09-11 19:38:11.252,1789166291.2521415,-138
2026-09-11 19:38:11.259,1789166291.2598336,-55
2026-09-11 19:38:11.267,1789166291.267526,-33
2026-09-11 19:38:11.275,1789166291.2752182,-70
2026-09-11 19:38:11.282,1789166291.2829106,-43
2026-09-11 19:38:11.290,1789166291.290603,-16
2026-09-11 19:38:11.298,1789166291.2982953,-21
2026-09-11 19:38:11.305,1789166291.3059876,-14
2026-09-11 19:38:11.313,1789166291.31368,0
2026-09-11 19:38:11.321,1789166291.321372,0
2026-09-11 19:38:11.329,1789166291.3290644,7
2026-09-11 19:38:11.336,1789166291.3367567,24
2026-09-11 19:38:11.344,1789166291.344449,36
2026-09-11 19:38:11.352,1789166291.3521414,43
2026-09-11 19:38:11.359,1789166291.3598337,53
2026-09-11 19:38:11.367,1789166291.367526,65
2026-09-11 19:38:11.375,1789166291.3752184,72
2026-09-11 19:38:11.382,1789166291.3829105,77
2026-09-11 19:38:11.390,1789166291.3906028,80
2026-09-11 19:38:11.398,1789166291.3982952,80
2026-09-11 19:38:11.405,1789166291.4059875,77
2026-09-11 19:38:11.413,1789166291.4136798,70
2026-09-11 19:38:11.421,1789166291.4213722,60
2026-09-11 19:38:11.429,1789166291.4290645,53
2026-09-11 19:38:11.436,1789166291.4367568,43
2026-09-11 19:38:11.444,1789166291.4444492,26
2026-09-11 19:38:11.452,1789166291.4521413,12
2026-09-11 19:38:11.459,1789166291.4598336,-4
2026-09-11 19:38:11.467,1789166291.467526,-24
2026-09-11 19:38:11.474,1789166291.4746563,-36
2026-09-11 19:38:11.482,1789166291.4823487,-41
2026-09-11 19:38:11.490,1789166291.490041,-48
2026-09-11 19:38:11.497,1789166291.4977334,-48
2026-09-11 19:38:11.505,1789166291.5054257,-33
2026-09-11 19:38:11.513,1789166291.5131178,-24
2026-09-11 19:38:11.520,1789166291.5208101,-21
2026-09-11 19:38:11.528,1789166291.5285025,-14
2026-09-11 19:38:11.536,1789166291.5361948,-7
2026-09-11 19:38:11.543,1789166291.5438871,-2
2026-09-11 19:38:11.551,1789166291.5515795,-2
2026-09-11 19:38:11.559,1789166291.5592718,0
2026-09-11 19:38:11.566,1789166291.5669641,0
2026-09-11 19:38:11.574,1789166291.5746562,2
2026-09-11 19:38:11.582,1789166291.5823486,4
2026-09-11 19:38:11.590,1789166291.590041,0
2026-09-11 19:38:11.597,1789166291.5977333,-14
2026-09-11 19:38:11.605,1789166291.6054256,-19
2026-09-11 19:38:11.613,1789166291.613118,-9
2026-09-11 19:38:11.620,1789166291.6208103,0
2026-09-11 19:38:11.628,1789166291.6285026,4
2026-09-11 19:38:11.636,1789166291.6361947,24
2026-09-11 19:38:11.643,1789166291.643887,48
2026-09-11 19:38:11.651,1789166291.6515794,50
2026-09-11 19:38:11.659,1789166291.6592717,41
2026-09-11 19:38:11.666,1789166291.666964,29
2026-09-11 19:38:11.674,1789166291.6746564,7
2026-09-11 19:38:11.682,1789166291.6823487,-9
2026-09-11 19:38:11.690,1789166291.690041,-9
2026-09-11 19:38:11.697,1789166291.6977332,-7
2026-09-11 19:38:11.705,1789166291.7054255,-9
2026-09-11 19:38:11.713,1789166291.7131178,-9
2026-09-11 19:38:11.720,1789166291.7208102,-7
2026-09-11 19:38:11.728,1789166291.7285025,-7
2026-09-11 19:38:11.736,1789166291.7361948,-14
2026-09-11 19:38:11.743,1789166291.7438872,9
2026-09-11 19:38:11.751,1789166291.7515795,123
2026-09-11 19:38:11.759,1789166291.7592716,337
2026-09-11 19:38:11.766,1789166291.766964,652
2026-09-11 19:38:11.774,1789166291.7746563,938
2026-09-11 19:38:11.782,1789166291.7823486,649
2026-09-11 19:38:11.790,1789166291.790041,-155
2026-09-11 19:38:11.797,1789166291.7977333,-404
2026-09-11 19:38:11.805,1789166291.8054256,-53
2026-09-11 19:38:11.813,1789166291.813118,9
2026-09-11 19:38:11.820,1789166291.82081,-121
2026-09-11 19:38:11.828,1789166291.8285024,-63
2026-09-11 19:38:11.836,1789166291.8361948,-12
2026-09-11 19:38:11.843,1789166291.843887,-50
2026-09-11 19:38:11.851,1789166291.8515794,-36
2026-09-11 19:38:11.859,1789166291.8592718,-2
2026-09-11 19:38:11.866,1789166291.866964,-9
2026-09-11 19:38:11.874,1789166291.8746564,-9
2026-09-11 19:38:11.882,1789166291.8823485,9
2026-09-11 19:38:11.890,1789166291.8900409,16
2026-09-11 19:38:11.897,1789166291.8977332,19
2026-09-11 19:38:11.905,1789166291.9054255,29
2026-09-11 19:38:11.913,1789166291.913118,41
2026-09-11 19:38:11.920,1789166291.9208102,50
2026-09-11 19:38:11.928,1789166291.9285026,60
2026-09-11 19:38:11.936,1789166291.936195,70
2026-09-11 19:38:11.943,1789166291.943887,77
2026-09-11 19:38:11.951,1789166291.9515793,82
2026-09-11 19:38:11.959,1789166291.9592717,87
2026-09-11 19:38:11.966,1789166291.966964,89
2026-09-11 19:38:11.974,1789166291.9746563,82
2026-09-11 19:38:11.982,1789166291.9823487,72
2026-09-11 19:38:11.990,1789166291.990041,70
2026-09-11 19:38:11.997,1789166291.9977334,65
2026-09-11 19:38:12.005,1789166292.0054257,58
2026-09-11 19:38:12.013,1789166292.0131178,48
2026-09-11 19:38:12.020,1789166292.0208101,36
2026-09-11 19:38:12.028,1789166292.0285025,21
2026-09-11 19:38:12.035,1789166292.0356333,7
2026-09-11 19:38:12.043,1789166292.0433257,-7
2026-09-11 19:38:12.051,1789166292.051018,-19
2026-09-11 19:38:12.058,1789166292.0587103,-24
2026-09-11 19:38:12.066,1789166292.0664027,-24
2026-09-11 19:38:12.074,1789166292.0740948,-16
2026-09-11 19:38:12.081,1789166292.081787,-4
2026-09-11 19:38:12.089,1789166292.0894794,2
2026-09-11 19:38:12.097,1789166292.0971718,9
2026-09-11 19:38:12.104,1789166292.1048641,16
2026-09-11 19:38:12.112,1789166292.1125565,16
2026-09-11 19:38:12.120,1789166292.1202488,16
2026-09-11 19:38:12.127,1789166292.1279411,24
2026-09-11 19:38:12.135,1789166292.1356332,29
2026-09-11 19:38:12.143,1789166292.1433256,24
2026-09-11 19:38:12.151,1789166292.151018,21
2026-09-11 19:38:12.158,1789166292.1587102,24
2026-09-11 19:38:12.166,1789166292.1664026,16
2026-09-11 19:38:12.174,1789166292.174095,4
2026-09-11 19:38:12.181,1789166292.1817873,2
2026-09-11 19:38:12.189,1789166292.1894796,9
2026-09-11 19:38:12.197,1789166292.1971717,16
2026-09-11 19:38:12.204,1789166292.204864,29
2026-09-11 19:38:12.212,1789166292.2125564,50
2026-09-11 19:38:12.220,1789166292.2202487,72
2026-09-11 19:38:12.227,1789166292.227941,77
2026-09-11 19:38:12.235,1789166292.2356334,65
2026-09-11 19:38:12.243,1789166292.2433257,48
2026-09-11 19:38:12.251,1789166292.251018,29
2026-09-11 19:38:12.258,1789166292.2587101,14
2026-09-11 19:38:12.266,1789166292.2664025,12
2026-09-11 19:38:12.274,1789166292.2740948,12
2026-09-11 19:38:12.281,1789166292.2817872,9
2026-09-11 19:38:12.289,1789166292.2894795,12
2026-09-11 19:38:12.297,1789166292.2971718,19
2026-09-11 19:38:12.304,1789166292.3048642,14
2026-09-11 19:38:12.312,1789166292.3125565,4
2026-09-11 19:38:12.320,1789166292.3202486,21
2026-09-11 19:38:12.327,1789166292.327941,118
2026-09-11 19:38:12.335,1789166292.3356333,315
2026-09-11 19:38:12.343,1789166292.3433256,613
2026-09-11 19:38:12.351,1789166292.351018,894
2026-09-11 19:38:12.358,1789166292.3587103,630
2026-09-11 19:38:12.366,1789166292.3664026,-130
2026-09-11 19:38:12.374,1789166292.374095,-366
2026-09-11 19:38:12.381,1789166292.381787,-31
2026-09-11 19:38:12.389,1789166292.3894794,31
2026-09-11 19:38:12.397,1789166292.3971717,-92
2026-09-11 19:38:12.404,1789166292.404864,-29
2026-09-11 19:38:12.412,1789166292.4125564,19
2026-09-11 19:38:12.420,1789166292.4202487,-21
2026-09-11 19:38:12.427,1789166292.427941,-12
2026-09-11 19:38:12.435,1789166292.4356334,21
2026-09-11 19:38:12.443,1789166292.4433255,19
2026-09-11 19:38:12.451,1789166292.4510179,21
2026-09-11 19:38:12.458,1789166292.4587102,36
2026-09-11 19:38:12.466,1789166292.4664025,36
2026-09-11 19:38:12.474,1789166292.4740949,38
2026-09-11 19:38:12.481,1789166292.4817872,53
2026-09-11 19:38:12.489,1789166292.4894795,65
2026-09-11 19:38:12.497,1789166292.4971719,72
2026-09-11 19:38:12.504,1789166292.504864,87
2026-09-11 19:38:12.512,1789166292.5125563,99
2026-09-11 19:38:12.520,1789166292.5202487,92
2026-09-11 19:38:12.527,1789166292.527941,84
2026-09-11 19:38:12.535,1789166292.5356333,94
2026-09-11 19:38:12.543,1789166292.5433257,101
2026-09-11 19:38:12.551,1789166292.551018,94
2026-09-11 19:38:12.558,1789166292.5587103,87
2026-09-11 19:38:12.566,1789166292.5664027,87
2026-09-11 19:38:12.574,1789166292.5740948,92
2026-09-11 19:38:12.581,1789166292.581787,77
2026-09-11 19:38:12.589,1789166292.5894794,55
2026-09-11 19:38:12.596,1789166292.5966098,41
2026-09-11 19:38:12.604,1789166292.6043022,19
2026-09-11 19:38:12.611,1789166292.6119945,-12
2026-09-11 19:38:12.619,1789166292.6196868,-26
2026-09-11 19:38:12.627,1789166292.6273792,-31
2026-09-11 19:38:12.635,1789166292.6350713,-36
2026-09-11 19:38:12.642,1789166292.6427636,-41
2026-09-11 19:38:12.650,1789166292.650456,-36
2026-09-11 19:38:12.658,1789166292.6581483,-29
2026-09-11 19:38:12.665,1789166292.6658406,-21
2026-09-11 19:38:12.673,1789166292.673533,-9
2026-09-11 19:38:12.681,1789166292.6812253,-4
2026-09-11 19:38:12.688,1789166292.6889176,-16
2026-09-11 19:38:12.696,1789166292.6966097,-21
2026-09-11 19:38:12.704,1789166292.704302,-16
2026-09-11 19:38:12.711,1789166292.7119944,-7
2026-09-11 19:38:12.719,1789166292.7196867,2
2026-09-11 19:38:12.727,1789166292.727379,-2
2026-09-11 19:38:12.735,1789166292.7350714,-12
2026-09-11 19:38:12.742,1789166292.7427638,-12
2026-09-11 19:38:12.750,1789166292.750456,-12
2026-09-11 19:38:12.758,1789166292.7581482,-16
2026-09-11 19:38:12.765,1789166292.7658405,-19
2026-09-11 19:38:12.773,1789166292.7735329,-21
2026-09-11 19:38:12.781,1789166292.7812252,-21
2026-09-11 19:38:12.788,1789166292.7889175,2
2026-09-11 19:38:12.796,1789166292.7966099,33
2026-09-11 19:38:12.804,1789166292.8043022,46
2026-09-11 19:38:12.811,1789166292.8119946,36
2026-09-11 19:38:12.819,1789166292.8196867,29
2026-09-11 19:38:12.827,1789166292.827379,7
2026-09-11 19:38:12.835,1789166292.8350713,-19
2026-09-11 19:38:12.842,1789166292.8427637,-19
2026-09-11 19:38:12.850,1789166292.850456,-7
2026-09-11 19:38:12.858,1789166292.8581483,-14
