timestamp_local,timestamp_epoch_s,ecg_uV
2026-09-13 19:33:05.274,1789338785.2746766,266
2026-09-13 19:33:05.282,1789338785.282369,254
2026-09-13 19:33:05.290,1789338785.2900612,223
2026-09-13 19:33:05.297,1789338785.2977536,167
2026-09-13 19:33:05.305,1789338785.305446,99
2026-09-13 19:33:05.313,1789338785.313138,36
2026-09-13 19:33:05.320,1789338785.3208303,-21
2026-09-13 19:33:05.328,1789338785.3285227,-65
2026-09-13 19:33:05.336,1789338785.336215,-87
2026-09-13 19:33:05.343,1789338785.3439074,-104
2026-09-13 19:33:05.351,1789338785.3515997,-116
2026-09-13 19:33:05.359,1789338785.359292,-116
2026-09-13 19:33:05.366,1789338785.3669844,-109
2026-09-13 19:33:05.374,1789338785.3746765,-104
2026-09-13 19:33:05.382,1789338785.3823688,-104
2026-09-13 19:33:05.390,1789338785.3900611,-104
2026-09-13 19:33:05.397,1789338785.3977535,-97
2026-09-13 19:33:05.405,1789338785.4054458,-87
2026-09-13 19:33:05.413,1789338785.4131382,-80
2026-09-13 19:33:05.420,1789338785.4208305,-72
2026-09-13 19:33:05.428,1789338785.4285228,-70
2026-09-13 19:33:05.436,1789338785.436215,-67
2026-09-13 19:33:05.443,1789338785.4439073,-55
2026-09-13 19:33:05.451,1789338785.4515996,-48
2026-09-13 19:33:05.459,1789338785.459292,-50
2026-09-13 19:33:05.466,1789338785.4669843,-48
2026-09-13 19:33:05.474,1789338785.4746766,-41
2026-09-13 19:33:05.482,1789338785.482369,-38
2026-09-13 19:33:05.490,1789338785.4900613,-36
2026-09-13 19:33:05.497,1789338785.4977534,-36
2026-09-13 19:33:05.505,1789338785.5054457,-36
2026-09-13 19:33:05.513,1789338785.513138,-33
2026-09-13 19:33:05.520,1789338785.5208304,-29
2026-09-13 19:33:05.528,1789338785.5285227,-31
2026-09-13 19:33:05.536,1789338785.536215,-33
2026-09-13 19:33:05.543,1789338785.5439074,-31
2026-09-13 19:33:05.551,1789338785.5515997,-29
2026-09-13 19:33:05.559,1789338785.5592918,-21
2026-09-13 19:33:05.566,1789338785.5669842,-19
2026-09-13 19:33:05.574,1789338785.5746765,-26
2026-09-13 19:33:05.582,1789338785.5823689,-21
2026-09-13 19:33:05.590,1789338785.5900612,-14
2026-09-13 19:33:05.597,1789338785.5977535,-16
2026-09-13 19:33:05.605,1789338785.6054459,-16
2026-09-13 19:33:05.613,1789338785.6131382,-14
2026-09-13 19:33:05.620,1789338785.6208303,-12
2026-09-13 19:33:05.628,1789338785.6285226,-7
2026-09-13 19:33:05.636,1789338785.636215,-9
2026-09-13 19:33:05.643,1789338785.6439073,-9
2026-09-13 19:33:05.651,1789338785.6515996,-4
2026-09-13 19:33:05.659,1789338785.659292,-2
2026-09-13 19:33:05.666,1789338785.6669843,-4
2026-09-13 19:33:05.674,1789338785.6746767,-2
2026-09-13 19:33:05.682,1789338785.6823688,-2
2026-09-13 19:33:05.690,1789338785.690061,-4
2026-09-13 19:33:05.697,1789338785.6977534,-2
2026-09-13 19:33:05.705,1789338785.7054458,2
2026-09-13 19:33:05.713,1789338785.713138,0
2026-09-13 19:33:05.720,1789338785.7208304,0
2026-09-13 19:33:05.728,1789338785.7285228,2
2026-09-13 19:33:05.736,1789338785.736215,7
2026-09-13 19:33:05.743,1789338785.7439072,7
2026-09-13 19:33:05.751,1789338785.7515996,7
2026-09-13 19:33:05.759,1789338785.759292,9
2026-09-13 19:33:05.766,1789338785.7669842,4
2026-09-13 19:33:05.774,1789338785.7746766,2
2026-09-13 19:33:05.782,1789338785.782369,12
2026-09-13 19:33:05.790,1789338785.7900612,14
2026-09-13 19:33:05.797,1789338785.7977536,9
2026-09-13 19:33:05.805,1789338785.805446,12
2026-09-13 19:33:05.813,1789338785.813138,14
2026-09-13 19:33:05.820,1789338785.8208303,12
2026-09-13 19:33:05.828,1789338785.8285227,12
2026-09-13 19:33:05.835,1789338785.8356533,16
2026-09-13 19:33:05.843,1789338785.8433456,19
2026-09-13 19:33:05.851,1789338785.851038,19
2026-09-13 19:33:05.858,1789338785.8587303,19
2026-09-13 19:33:05.866,1789338785.8664227,21
2026-09-13 19:33:05.874,1789338785.8741148,19
2026-09-13 19:33:05.881,1789338785.881807,19
2026-09-13 19:33:05.889,1789338785.8894994,19
2026-09-13 19:33:05.897,1789338785.8971918,21
2026-09-13 19:33:05.904,1789338785.904884,19
2026-09-13 19:33:05.912,1789338785.9125764,21
2026-09-13 19:33:05.920,1789338785.9202688,21
2026-09-13 19:33:05.927,1789338785.927961,21
2026-09-13 19:33:05.935,1789338785.9356532,24
2026-09-13 19:33:05.943,1789338785.9433455,24
2026-09-13 19:33:05.951,1789338785.951038,19
2026-09-13 19:33:05.958,1789338785.9587302,21
2026-09-13 19:33:05.966,1789338785.9664226,24
2026-09-13 19:33:05.974,1789338785.974115,24
2026-09-13 19:33:05.981,1789338785.9818072,24
2026-09-13 19:33:05.989,1789338785.9894996,24
2026-09-13 19:33:05.997,1789338785.9971917,19
2026-09-13 19:33:06.004,1789338786.004884,19
2026-09-13 19:33:06.012,1789338786.0125763,21
2026-09-13 19:33:06.020,1789338786.0202687,24
2026-09-13 19:33:06.027,1789338786.027961,24
2026-09-13 19:33:06.035,1789338786.0356534,21
2026-09-13 19:33:06.043,1789338786.0433457,24
2026-09-13 19:33:06.051,1789338786.051038,36
2026-09-13 19:33:06.058,1789338786.0587301,48
2026-09-13 19:33:06.066,1789338786.0664225,53
2026-09-13 19:33:06.074,1789338786.0741148,48
2026-09-13 19:33:06.081,1789338786.0818071,36
2026-09-13 19:33:06.089,1789338786.0894995,31
2026-09-13 19:33:06.097,1789338786.0971918,31
2026-09-13 19:33:06.104,1789338786.1048841,24
2026-09-13 19:33:06.112,1789338786.1125765,16
2026-09-13 19:33:06.120,1789338786.1202686,16
2026-09-13 19:33:06.127,1789338786.127961,19
2026-09-13 19:33:06.135,1789338786.1356533,21
2026-09-13 19:33:06.143,1789338786.1433456,26
2026-09-13 19:33:06.151,1789338786.151038,31
2026-09-13 19:33:06.158,1789338786.1587303,31
2026-09-13 19:33:06.166,1789338786.1664226,24
2026-09-13 19:33:06.174,1789338786.174115,19
2026-09-13 19:33:06.181,1789338786.181807,67
2026-09-13 19:33:06.189,1789338786.1894994,252
2026-09-13 19:33:06.197,1789338786.1971917,584
2026-09-13 19:33:06.204,1789338786.204884,989
2026-09-13 19:33:06.212,1789338786.2125764,1122
2026-09-13 19:33:06.220,1789338786.2202687,562
2026-09-13 19:33:06.227,1789338786.227961,-186
2026-09-13 19:33:06.235,1789338786.2356534,-261
2026-09-13 19:33:06.243,1789338786.2433455,-16
2026-09-13 19:33:06.251,1789338786.2510378,-60
2026-09-13 19:33:06.258,1789338786.2587302,-128
2026-09-13 19:33:06.266,1789338786.2664225,-55
2026-09-13 19:33:06.274,1789338786.2741148,-50
2026-09-13 19:33:06.281,1789338786.2818072,-80
2026-09-13 19:33:06.289,1789338786.2894995,-53
2026-09-13 19:33:06.297,1789338786.2971919,-36
2026-09-13 19:33:06.304,1789338786.304884,-41
2026-09-13 19:33:06.312,1789338786.3125763,-29
2026-09-13 19:33:06.320,1789338786.3202686,-19
2026-09-13 19:33:06.327,1789338786.327961,-19
2026-09-13 19:33:06.335,1789338786.3356533,-14
2026-09-13 19:33:06.343,1789338786.3433456,-4
2026-09-13 19:33:06.351,1789338786.351038,0
2026-09-13 19:33:06.358,1789338786.3587303,9
2026-09-13 19:33:06.366,1789338786.3664227,21
2026-09-13 19:33:06.374,1789338786.3741148,31
2026-09-13 19:33:06.381,1789338786.381807,36
2026-09-13 19:33:06.389,1789338786.3894994,48
2026-09-13 19:33:06.396,1789338786.3966606,67
2026-09-13 19:33:06.404,1789338786.404353,82
2026-09-13 19:33:06.412,1789338786.4120452,101
2026-09-13 19:33:06.419,1789338786.4197376,128
2026-09-13 19:33:06.427,1789338786.42743,155
2026-09-13 19:33:06.435,1789338786.435122,174
2026-09-13 19:33:06.442,1789338786.4428144,194
2026-09-13 19:33:06.450,1789338786.4505067,208
2026-09-13 19:33:06.458,1789338786.458199,215
2026-09-13 19:33:06.465,1789338786.4658914,208
2026-09-13 19:33:06.473,1789338786.4735837,186
2026-09-13 19:33:06.481,1789338786.481276,152
2026-09-13 19:33:06.488,1789338786.4889684,101
2026-09-13 19:33:06.496,1789338786.4966605,41
2026-09-13 19:33:06.504,1789338786.5043528,-7
2026-09-13 19:33:06.512,1789338786.5120451,-38
2026-09-13 19:33:06.519,1789338786.5197375,-65
2026-09-13 19:33:06.527,1789338786.5274298,-82
2026-09-13 19:33:06.535,1789338786.5351222,-94
2026-09-13 19:33:06.542,1789338786.5428145,-104
2026-09-13 19:33:06.550,1789338786.5505068,-106
2026-09-13 19:33:06.558,1789338786.558199,-94
2026-09-13 19:33:06.565,1789338786.5658913,-80
2026-09-13 19:33:06.573,1789338786.5735836,-80
2026-09-13 19:33:06.581,1789338786.581276,-77
2026-09-13 19:33:06.588,1789338786.5889683,-67
2026-09-13 19:33:06.596,1789338786.5966606,-65
2026-09-13 19:33:06.604,1789338786.604353,-60
2026-09-13 19:33:06.612,1789338786.6120453,-50
2026-09-13 19:33:06.619,1789338786.6197374,-48
2026-09-13 19:33:06.627,1789338786.6274297,-41
2026-09-13 19:33:06.635,1789338786.635122,-36
2026-09-13 19:33:06.642,1789338786.6428144,-38
2026-09-13 19:33:06.650,1789338786.6505067,-36
2026-09-13 19:33:06.658,1789338786.658199,-33
2026-09-13 19:33:06.665,1789338786.6658914,-38
2026-09-13 19:33:06.673,1789338786.6735837,-33
2026-09-13 19:33:06.681,1789338786.6812758,-29
2026-09-13 19:33:06.688,1789338786.6889682,-29
2026-09-13 19:33:06.696,1789338786.6966605,-29
2026-09-13 19:33:06.704,1789338786.7043529,-29
2026-09-13 19:33:06.712,1789338786.7120452,-29
2026-09-13 19:33:06.719,1789338786.7197375,-24
2026-09-13 19:33:06.727,1789338786.7274299,-24
2026-09-13 19:33:06.735,1789338786.7351222,-26
2026-09-13 19:33:06.742,1789338786.7428143,-21
2026-09-13 19:33:06.750,1789338786.7505066,-14
2026-09-13 19:33:06.758,1789338786.758199,-12
2026-09-13 19:33:06.765,1789338786.7658913,-14
2026-09-13 19:33:06.773,1789338786.7735837,-16
2026-09-13 19:33:06.781,1789338786.781276,-14
2026-09-13 19:33:06.788,1789338786.7889683,-9
2026-09-13 19:33:06.796,1789338786.7966607,-7
2026-09-13 19:33:06.804,1789338786.8043528,-9
2026-09-13 19:33:06.812,1789338786.812045,-4
2026-09-13 19:33:06.819,1789338786.8197374,-4
2026-09-13 19:33:06.827,1789338786.8274298,-7
2026-09-13 19:33:06.835,1789338786.835122,-12
2026-09-13 19:33:06.842,1789338786.8428144,-7
2026-09-13 19:33:06.850,1789338786.8505068,0
2026-09-13 19:33:06.858,1789338786.8581991,4
2026-09-13 19:33:06.865,1789338786.8658912,2
2026-09-13 19:33:06.873,1789338786.8735836,-2
2026-09-13 19:33:06.881,1789338786.881276,-2
2026-09-13 19:33:06.888,1789338786.8889682,0
2026-09-13 19:33:06.896,1789338786.8966606,4
2026-09-13 19:33:06.904,1789338786.904353,4
2026-09-13 19:33:06.912,1789338786.9120452,2
2026-09-13 19:33:06.919,1789338786.9197376,4
2026-09-13 19:33:06.927,1789338786.92743,4
2026-09-13 19:33:06.935,1789338786.935122,7
2026-09-13 19:33:06.942,1789338786.9428144,9
2026-09-13 19:33:06.950,1789338786.9505067,2
2026-09-13 19:33:06.957,1789338786.9576375,2
2026-09-13 19:33:06.965,1789338786.96533,14
2026-09-13 19:33:06.973,1789338786.9730222,19
2026-09-13 19:33:06.980,1789338786.9807146,14
2026-09-13 19:33:06.988,1789338786.988407,12
2026-09-13 19:33:06.996,1789338786.996099,14
2026-09-13 19:33:07.003,1789338787.0037913,9
2026-09-13 19:33:07.011,1789338787.0114837,9
2026-09-13 19:33:07.019,1789338787.019176,21
2026-09-13 19:33:07.026,1789338787.0268683,24
2026-09-13 19:33:07.034,1789338787.0345607,14
2026-09-13 19:33:07.042,1789338787.042253,14
2026-09-13 19:33:07.049,1789338787.0499454,24
2026-09-13 19:33:07.057,1789338787.0576375,26
2026-09-13 19:33:07.065,1789338787.0653298,16
2026-09-13 19:33:07.073,1789338787.0730221,19
2026-09-13 19:33:07.080,1789338787.0807145,33
2026-09-13 19:33:07.088,1789338787.0884068,36
2026-09-13 19:33:07.096,1789338787.0960991,19
2026-09-13 19:33:07.103,1789338787.1037915,16
2026-09-13 19:33:07.111,1789338787.1114838,26
2026-09-13 19:33:07.119,1789338787.119176,24
2026-09-13 19:33:07.126,1789338787.1268682,26
2026-09-13 19:33:07.134,1789338787.1345606,50
2026-09-13 19:33:07.142,1789338787.142253,72
2026-09-13 19:33:07.149,1789338787.1499453,80
2026-09-13 19:33:07.157,1789338787.1576376,80
2026-09-13 19:33:07.165,1789338787.16533,65
2026-09-13 19:33:07.173,1789338787.1730223,60
2026-09-13 19:33:07.180,1789338787.1807144,58
2026-09-13 19:33:07.188,1789338787.1884067,33
2026-09-13 19:33:07.196,1789338787.196099,9
2026-09-13 19:33:07.203,1789338787.2037914,16
2026-09-13 19:33:07.211,1789338787.2114837,24
2026-09-13 19:33:07.219,1789338787.219176,16
2026-09-13 19:33:07.226,1789338787.2268684,16
2026-09-13 19:33:07.234,1789338787.2345607,24
2026-09-13 19:33:07.242,1789338787.2422528,26
2026-09-13 19:33:07.249,1789338787.2499452,16
2026-09-13 19:33:07.257,1789338787.2576375,12
2026-09-13 19:33:07.265,1789338787.2653298,72
2026-09-13 19:33:07.273,1789338787.2730222,259
2026-09-13 19:33:07.280,1789338787.2807145,569
2026-09-13 19:33:07.288,1789338787.2884068,957
2026-09-13 19:33:07.296,1789338787.2960992,1084
2026-09-13 19:33:07.303,1789338787.3037913,499
2026-09-13 19:33:07.311,1789338787.3114836,-232
2026-09-13 19:33:07.319,1789338787.319176,-254
2026-09-13 19:33:07.326,1789338787.3268683,-4
2026-09-13 19:33:07.334,1789338787.3345606,-58
2026-09-13 19:33:07.342,1789338787.342253,-121
2026-09-13 19:33:07.349,1789338787.3499453,-53
2026-09-13 19:33:07.357,1789338787.3576376,-46
2026-09-13 19:33:07.365,1789338787.3653297,-72
2026-09-13 19:33:07.373,1789338787.373022,-50
2026-09-13 19:33:07.380,1789338787.3807144,-29
2026-09-13 19:33:07.388,1789338787.3884068,-24
2026-09-13 19:33:07.396,1789338787.396099,-16
2026-09-13 19:33:07.403,1789338787.4037914,-12
2026-09-13 19:33:07.411,1789338787.4114838,-9
2026-09-13 19:33:07.419,1789338787.419176,4
2026-09-13 19:33:07.426,1789338787.4268682,14
2026-09-13 19:33:07.434,1789338787.4345605,21
2026-09-13 19:33:07.442,1789338787.4422529,36
2026-09-13 19:33:07.449,1789338787.4499452,46
2026-09-13 19:33:07.457,1789338787.4576375,50
2026-09-13 19:33:07.465,1789338787.46533,65
2026-09-13 19:33:07.473,1789338787.4730222,82
2026-09-13 19:33:07.480,1789338787.4807146,97
2026-09-13 19:33:07.488,1789338787.488407,123
2026-09-13 19:33:07.496,1789338787.496099,157
2026-09-13 19:33:07.503,1789338787.5037913,179
2026-09-13 19:33:07.511,1789338787.5114837,201
2026-09-13 19:33:07.518,1789338787.518614,230
2026-09-13 19:33:07.526,1789338787.5263064,257
2026-09-13 19:33:07.533,1789338787.5339987,264
2026-09-13 19:33:07.541,1789338787.541691,261
2026-09-13 19:33:07.549,1789338787.5493834,254
2026-09-13 19:33:07.557,1789338787.5570755,223
2026-09-13 19:33:07.564,1789338787.5647678,172
2026-09-13 19:33:07.572,1789338787.5724602,123
2026-09-13 19:33:07.580,1789338787.5801525,70
2026-09-13 19:33:07.587,1789338787.5878448,19
2026-09-13 19:33:07.595,1789338787.5955372,-14
2026-09-13 19:33:07.603,1789338787.6032295,-41
2026-09-13 19:33:07.610,1789338787.6109219,-63
2026-09-13 19:33:07.618,1789338787.618614,-65
2026-09-13 19:33:07.626,1789338787.6263063,-67
2026-09-13 19:33:07.633,1789338787.6339986,-72
2026-09-13 19:33:07.641,1789338787.641691,-65
2026-09-13 19:33:07.649,1789338787.6493833,-53
2026-09-13 19:33:07.657,1789338787.6570756,-50
2026-09-13 19:33:07.664,1789338787.664768,-43
2026-09-13 19:33:07.672,1789338787.6724603,-31
2026-09-13 19:33:07.680,1789338787.6801524,-26
2026-09-13 19:33:07.687,1789338787.6878448,-26
2026-09-13 19:33:07.695,1789338787.695537,-21
2026-09-13 19:33:07.703,1789338787.7032294,-16
2026-09-13 19:33:07.710,1789338787.7109218,-9
2026-09-13 19:33:07.718,1789338787.718614,-4
2026-09-13 19:33:07.726,1789338787.7263064,-4
2026-09-13 19:33:07.733,1789338787.7339988,-2
2026-09-13 19:33:07.741,1789338787.7416909,0
2026-09-13 19:33:07.749,1789338787.7493832,2
2026-09-13 19:33:07.757,1789338787.7570755,2
2026-09-13 19:33:07.764,1789338787.764768,4
2026-09-13 19:33:07.772,1789338787.7724602,4
2026-09-13 19:33:07.780,1789338787.7801526,4
2026-09-13 19:33:07.787,1789338787.787845,4
2026-09-13 19:33:07.795,1789338787.7955372,7
2026-09-13 19:33:07.803,1789338787.8032293,7
2026-09-13 19:33:07.810,1789338787.8109217,7
2026-09-13 19:33:07.818,1789338787.818614,9
2026-09-13 19:33:07.826,1789338787.8263063,9
2026-09-13 19:33:07.833,1789338787.8339987,9
2026-09-13 19:33:07.841,1789338787.841691,12
2026-09-13 19:33:07.849,1789338787.8493834,12
2026-09-13 19:33:07.857,1789338787.8570757,14
2026-09-13 19:33:07.864,1789338787.8647678,19
2026-09-13 19:33:07.872,1789338787.8724601,21
2026-09-13 19:33:07.880,1789338787.8801525,14
2026-09-13 19:33:07.887,1789338787.8878448,14
2026-09-13 19:33:07.895,1789338787.8955371,24
2026-09-13 19:33:07.903,1789338787.9032295,31
2026-09-13 19:33:07.910,1789338787.9109218,29
2026-09-13 19:33:07.918,1789338787.9186141,24
2026-09-13 19:33:07.926,1789338787.9263062,24
2026-09-13 19:33:07.933,1789338787.9339986,29
2026-09-13 19:33:07.941,1789338787.941691,29
2026-09-13 19:33:07.949,1789338787.9493833,29
2026-09-13 19:33:07.957,1789338787.9570756,31
2026-09-13 19:33:07.964,1789338787.964768,31
2026-09-13 19:33:07.972,1789338787.9724603,31
2026-09-13 19:33:07.980,1789338787.9801526,29
2026-09-13 19:33:07.987,1789338787.9878447,29
2026-09-13 19:33:07.995,1789338787.995537,33
2026-09-13 19:33:08.003,1789338788.0032294,41
2026-09-13 19:33:08.010,1789338788.0109217,41
2026-09-13 19:33:08.018,1789338788.018614,41
2026-09-13 19:33:08.026,1789338788.0263064,41
2026-09-13 19:33:08.033,1789338788.0339987,36
2026-09-13 19:33:08.041,1789338788.041691,36
2026-09-13 19:33:08.049,1789338788.0493834,36
2026-09-13 19:33:08.057,1789338788.0570755,33
2026-09-13 19:33:08.064,1789338788.0647678,36
2026-09-13 19:33:08.072,1789338788.0724602,33
2026-09-13 19:33:08.079,1789338788.0796216,31
2026-09-13 19:33:08.087,1789338788.087314,33
2026-09-13 19:33:08.095,1789338788.0950062,41
2026-09-13 19:33:08.102,1789338788.1026986,38
2026-09-13 19:33:08.110,1789338788.110391,31
2026-09-13 19:33:08.118,1789338788.118083,36
2026-09-13 19:33:08.125,1789338788.1257753,41
2026-09-13 19:33:08.133,1789338788.1334677,38
2026-09-13 19:33:08.141,1789338788.14116,36
2026-09-13 19:33:08.148,1789338788.1488523,29
2026-09-13 19:33:08.156,1789338788.1565447,21
2026-09-13 19:33:08.164,1789338788.164237,29
2026-09-13 19:33:08.171,1789338788.1719294,46
2026-09-13 19:33:08.179,1789338788.1796215,67
2026-09-13 19:33:08.187,1789338788.1873138,89
2026-09-13 19:33:08.195,1789338788.1950061,94
2026-09-13 19:33:08.202,1789338788.2026985,82
2026-09-13 19:33:08.210,1789338788.2103908,70
2026-09-13 19:33:08.218,1789338788.2180831,65
2026-09-13 19:33:08.225,1789338788.2257755,46
2026-09-13 19:33:08.233,1789338788.2334678,29
2026-09-13 19:33:08.241,1789338788.24116,26
2026-09-13 19:33:08.248,1789338788.2488523,21
2026-09-13 19:33:08.256,1789338788.2565446,7
2026-09-13 19:33:08.264,1789338788.264237,16
2026-09-13 19:33:08.271,1789338788.2719293,38
2026-09-13 19:33:08.279,1789338788.2796216,38
2026-09-13 19:33:08.287,1789338788.287314,33
2026-09-13 19:33:08.295,1789338788.2950063,31
2026-09-13 19:33:08.302,1789338788.3026984,38
2026-09-13 19:33:08.310,1789338788.3103907,140
2026-09-13 19:33:08.318,1789338788.318083,400
2026-09-13 19:33:08.325,1789338788.3257754,768
2026-09-13 19:33:08.333,1789338788.3334677,1093
2026-09-13 19:33:08.341,1789338788.34116,877
2026-09-13 19:33:08.348,1789338788.3488524,46
2026-09-13 19:33:08.356,1789338788.3565447,-378
2026-09-13 19:33:08.364,1789338788.3642368,-106
2026-09-13 19:33:08.371,1789338788.3719292,14
2026-09-13 19:33:08.379,1789338788.3796215,-99
2026-09-13 19:33:08.387,1789338788.3873138,-67
2026-09-13 19:33:08.395,1789338788.3950062,-14
2026-09-13 19:33:08.402,1789338788.4026985,-38
2026-09-13 19:33:08.410,1789338788.4103909,-29
2026-09-13 19:33:08.418,1789338788.4180832,-4
2026-09-13 19:33:08.425,1789338788.4257753,-9
2026-09-13 19:33:08.433,1789338788.4334676,2
2026-09-13 19:33:08.441,1789338788.44116,26
2026-09-13 19:33:08.448,1789338788.4488523,21
2026-09-13 19:33:08.456,1789338788.4565446,29
2026-09-13 19:33:08.464,1789338788.464237,55
2026-09-13 19:33:08.471,1789338788.4719293,58
2026-09-13 19:33:08.479,1789338788.4796216,50
2026-09-13 19:33:08.487,1789338788.4873137,70
2026-09-13 19:33:08.495,1789338788.495006,87
2026-09-13 19:33:08.502,1789338788.5026984,89
2026-09-13 19:33:08.510,1789338788.5103908,101
2026-09-13 19:33:08.518,1789338788.518083,126
2026-09-13 19:33:08.525,1789338788.5257754,150
2026-09-13 19:33:08.533,1789338788.5334678,177
2026-09-13 19:33:08.541,1789338788.54116,206
2026-09-13 19:33:08.548,1789338788.5488522,240
2026-09-13 19:33:08.556,1789338788.5565445,271
2026-09-13 19:33:08.564,1789338788.5642369,295
2026-09-13 19:33:08.571,1789338788.5719292,320
2026-09-13 19:33:08.579,1789338788.5796216,329
2026-09-13 19:33:08.587,1789338788.587314,320
2026-09-13 19:33:08.595,1789338788.5950062,288
2026-09-13 19:33:08.602,1789338788.6026986,237
2026-09-13 19:33:08.610,1789338788.610391,179
2026-09-13 19:33:08.618,1789338788.618083,109
2026-09-13 19:33:08.625,1789338788.6257753,36
2026-09-13 19:33:08.633,1789338788.6334677,-16
2026-09-13 19:33:08.640,1789338788.6405985,-41
2026-09-13 19:33:08.648,1789338788.6482909,-65
2026-09-13 19:33:08.655,1789338788.6559832,-92
2026-09-13 19:33:08.663,1789338788.6636755,-101
2026-09-13 19:33:08.671,1789338788.671368,-92
2026-09-13 19:33:08.679,1789338788.67906,-92
2026-09-13 19:33:08.686,1789338788.6867523,-89
2026-09-13 19:33:08.694,1789338788.6944447,-72
2026-09-13 19:33:08.702,1789338788.702137,-67
2026-09-13 19:33:08.709,1789338788.7098293,-67
2026-09-13 19:33:08.717,1789338788.7175217,-60
2026-09-13 19:33:08.725,1789338788.725214,-48
2026-09-13 19:33:08.732,1789338788.7329063,-41
2026-09-13 19:33:08.740,1789338788.7405984,-36
2026-09-13 19:33:08.748,1789338788.7482908,-29
2026-09-13 19:33:08.755,1789338788.755983,-21
2026-09-13 19:33:08.763,1789338788.7636755,-14
2026-09-13 19:33:08.771,1789338788.7713678,-16
2026-09-13 19:33:08.779,1789338788.7790601,-26
2026-09-13 19:33:08.786,1789338788.7867525,-21
2026-09-13 19:33:08.794,1789338788.7944448,-12
2026-09-13 19:33:08.802,1789338788.802137,-14
2026-09-13 19:33:08.809,1789338788.8098292,-21
2026-09-13 19:33:08.817,1789338788.8175216,-14
2026-09-13 19:33:08.825,1789338788.825214,-4
2026-09-13 19:33:08.832,1789338788.8329062,-9
2026-09-13 19:33:08.840,1789338788.8405986,-14
2026-09-13 19:33:08.848,1789338788.848291,-14
2026-09-13 19:33:08.855,1789338788.8559833,-9
2026-09-13 19:33:08.863,1789338788.8636754,-2
2026-09-13 19:33:08.871,1789338788.8713677,2
2026-09-13 19:33:08.879,1789338788.87906,0
2026-09-13 19:33:08.886,1789338788.8867524,0
2026-09-13 19:33:08.894,1789338788.8944447,12
2026-09-13 19:33:08.902,1789338788.902137,9
2026-09-13 19:33:08.909,1789338788.9098294,4
2026-09-13 19:33:08.917,1789338788.9175217,14
2026-09-13 19:33:08.925,1789338788.9252138,16
2026-09-13 19:33:08.932,1789338788.9329062,0
2026-09-13 19:33:08.940,1789338788.9405985,0
2026-09-13 19:33:08.948,1789338788.9482908,16
2026-09-13 19:33:08.955,1789338788.9559832,24
2026-09-13 19:33:08.963,1789338788.9636755,21
2026-09-13 19:33:08.971,1789338788.9713678,14
2026-09-13 19:33:08.979,1789338788.9790602,14
2026-09-13 19:33:08.986,1789338788.9867523,16
2026-09-13 19:33:08.994,1789338788.9944446,19
2026-09-13 19:33:09.002,1789338789.002137,21
2026-09-13 19:33:09.009,1789338789.0098293,24
2026-09-13 19:33:09.017,1789338789.0175216,26
2026-09-13 19:33:09.025,1789338789.025214,36
2026-09-13 19:33:09.032,1789338789.0329063,60
2026-09-13 19:33:09.040,1789338789.0405986,77
2026-09-13 19:33:09.048,1789338789.0482907,70
2026-09-13 19:33:09.055,1789338789.055983,65
2026-09-13 19:33:09.063,1789338789.0636754,65
2026-09-13 19:33:09.071,1789338789.0713677,48
2026-09-13 19:33:09.079,1789338789.07906,26
2026-09-13 19:33:09.086,1789338789.0867524,14
2026-09-13 19:33:09.094,1789338789.0944448,12
2026-09-13 19:33:09.102,1789338789.102137,2
2026-09-13 19:33:09.109,1789338789.1098292,-2
2026-09-13 19:33:09.117,1789338789.1175215,9
2026-09-13 19:33:09.125,1789338789.1252139,19
2026-09-13 19:33:09.132,1789338789.1329062,14
2026-09-13 19:33:09.140,1789338789.1405985,7
2026-09-13 19:33:09.148,1789338789.1482909,12
2026-09-13 19:33:09.155,1789338789.1559832,50
2026-09-13 19:33:09.163,1789338789.1636755,189
2026-09-13 19:33:09.171,1789338789.171368,489
2026-09-13 19:33:09.179,1789338789.17906,904
2026-09-13 19:33:09.186,1789338789.1867523,1113
2026-09-13 19:33:09.194,1789338789.1944447,615
2026-09-13 19:33:09.201,1789338789.201575,-240
2026-09-13 19:33:09.209,1789338789.2092674,-400
2026-09-13 19:33:09.216,1789338789.2169597,-46
2026-09-13 19:33:09.224,1789338789.224652,-21
2026-09-13 19:33:09.232,1789338789.2323444,-126
2026-09-13 19:33:09.240,1789338789.2400365,-46
2026-09-13 19:33:09.247,1789338789.2477288,-19
2026-09-13 19:33:09.255,1789338789.2554212,-55
2026-09-13 19:33:09.263,1789338789.2631135,-26
2026-09-13 19:33:09.270,1789338789.2708058,-2
2026-09-13 19:33:09.278,1789338789.2784982,-16
2026-09-13 19:33:09.286,1789338789.2861905,0
2026-09-13 19:33:09.293,1789338789.2938828,31
2026-09-13 19:33:09.301,1789338789.301575,29
2026-09-13 19:33:09.309,1789338789.3092673,31
2026-09-13 19:33:09.316,1789338789.3169596,46
2026-09-13 19:33:09.324,1789338789.324652,53
2026-09-13 19:33:09.332,1789338789.3323443,63
2026-09-13 19:33:09.340,1789338789.3400366,89
2026-09-13 19:33:09.347,1789338789.347729,104
2026-09-13 19:33:09.355,1789338789.3554213,104
2026-09-13 19:33:09.363,1789338789.3631134,116
2026-09-13 19:33:09.370,1789338789.3708057,145
2026-09-13 19:33:09.378,1789338789.378498,184
2026-09-13 19:33:09.386,1789338789.3861904,220
2026-09-13 19:33:09.393,1789338789.3938828,249
2026-09-13 19:33:09.401,1789338789.401575,288
2026-09-13 19:33:09.409,1789338789.4092674,329
2026-09-13 19:33:09.416,1789338789.4169598,344
2026-09-13 19:33:09.424,1789338789.4246519,358
2026-09-13 19:33:09.432,1789338789.4323442,368
2026-09-13 19:33:09.440,1789338789.4400365,351
2026-09-13 19:33:09.447,1789338789.4477289,305
2026-09-13 19:33:09.455,1789338789.4554212,232
2026-09-13 19:33:09.463,1789338789.4631135,150
2026-09-13 19:33:09.470,1789338789.470806,60
2026-09-13 19:33:09.478,1789338789.4784982,-14
2026-09-13 19:33:09.486,1789338789.4861903,-58
2026-09-13 19:33:09.493,1789338789.4938827,-84
2026-09-13 19:33:09.501,1789338789.501575,-104
2026-09-13 19:33:09.509,1789338789.5092673,-106
2026-09-13 19:33:09.516,1789338789.5169597,-106
2026-09-13 19:33:09.524,1789338789.524652,-104
2026-09-13 19:33:09.532,1789338789.5323443,-94
2026-09-13 19:33:09.540,1789338789.5400367,-99
2026-09-13 19:33:09.547,1789338789.5477288,-104
2026-09-13 19:33:09.555,1789338789.555421,-87
2026-09-13 19:33:09.563,1789338789.5631135,-70
2026-09-13 19:33:09.570,1789338789.5708058,-65
2026-09-13 19:33:09.578,1789338789.5784981,-58
2026-09-13 19:33:09.586,1789338789.5861905,-55
2026-09-13 19:33:09.593,1789338789.5938828,-53
2026-09-13 19:33:09.601,1789338789.6015751,-33
2026-09-13 19:33:09.609,1789338789.6092672,-24
2026-09-13 19:33:09.616,1789338789.6169596,-29
2026-09-13 19:33:09.624,1789338789.624652,-21
2026-09-13 19:33:09.632,1789338789.6323442,-4
2026-09-13 19:33:09.640,1789338789.6400366,2
2026-09-13 19:33:09.647,1789338789.647729,-9
2026-09-13 19:33:09.655,1789338789.6554213,-16
2026-09-13 19:33:09.663,1789338789.6631136,-9
2026-09-13 19:33:09.670,1789338789.6708057,-2
2026-09-13 19:33:09.678,1789338789.678498,-4
2026-09-13 19:33:09.686,1789338789.6861904,-4
2026-09-13 19:33:09.693,1789338789.6938827,-7
2026-09-13 19:33:09.701,1789338789.701575,-2
2026-09-13 19:33:09.709,1789338789.7092674,4
2026-09-13 19:33:09.716,1789338789.7169597,2
2026-09-13 19:33:09.724,1789338789.724652,9
2026-09-13 19:33:09.732,1789338789.7323444,19
2026-09-13 19:33:09.740,1789338789.7400365,2
2026-09-13 19:33:09.747,1789338789.7477288,-7
2026-09-13 19:33:09.755,1789338789.7554212,14
2026-09-13 19:33:09.762,1789338789.762552,24
2026-09-13 19:33:09.770,1789338789.7702444,16
2026-09-13 19:33:09.777,1789338789.7779367,26
2026-09-13 19:33:09.785,1789338789.785629,41
2026-09-13 19:33:09.793,1789338789.7933214,46
2026-09-13 19:33:09.801,1789338789.8010135,65
2026-09-13 19:33:09.808,1789338789.8087058,82
2026-09-13 19:33:09.816,1789338789.8163981,70
2026-09-13 19:33:09.824,1789338789.8240905,63
2026-09-13 19:33:09.831,1789338789.8317828,80
2026-09-13 19:33:09.839,1789338789.8394752,65
2026-09-13 19:33:09.847,1789338789.8471675,36
2026-09-13 19:33:09.854,1789338789.8548598,26
2026-09-13 19:33:09.862,1789338789.862552,24
2026-09-13 19:33:09.870,1789338789.8702443,29
2026-09-13 19:33:09.877,1789338789.8779366,41
2026-09-13 19:33:09.885,1789338789.885629,41
2026-09-13 19:33:09.893,1789338789.8933213,38
2026-09-13 19:33:09.901,1789338789.9010136,38
2026-09-13 19:33:09.908,1789338789.908706,33
2026-09-13 19:33:09.916,1789338789.9163983,31
2026-09-13 19:33:09.924,1789338789.9240904,63
2026-09-13 19:33:09.931,1789338789.9317827,206
2026-09-13 19:33:09.939,1789338789.939475,523
2026-09-13 19:33:09.947,1789338789.9471674,940
2026-09-13 19:33:09.954,1789338789.9548597,1137
2026-09-13 19:33:09.962,1789338789.962552,652
2026-09-13 19:33:09.970,1789338789.9702444,-194
2026-09-13 19:33:09.977,1789338789.9779367,-388
2026-09-13 19:33:09.985,1789338789.9856288,-43
2026-09-13 19:33:09.993,1789338789.9933212,-2
2026-09-13 19:33:10.001,1789338790.0010135,-106
2026-09-13 19:33:10.008,1789338790.0087059,-31
2026-09-13 19:33:10.016,1789338790.0163982,7
2026-09-13 19:33:10.024,1789338790.0240905,-31
2026-09-13 19:33:10.031,1789338790.0317829,0
2026-09-13 19:33:10.039,1789338790.0394752,36
2026-09-13 19:33:10.047,1789338790.0471673,16
2026-09-13 19:33:10.054,1789338790.0548596,14
2026-09-13 19:33:10.062,1789338790.062552,33
2026-09-13 19:33:10.070,1789338790.0702443,43
2026-09-13 19:33:10.077,1789338790.0779366,41
2026-09-13 19:33:10.085,1789338790.085629,53
2026-09-13 19:33:10.093,1789338790.0933213,87
2026-09-13 19:33:10.101,1789338790.1010137,97
2026-09-13 19:33:10.108,1789338790.1087058,82
2026-09-13 19:33:10.116,1789338790.116398,84
2026-09-13 19:33:10.124,1789338790.1240904,111
2026-09-13 19:33:10.131,1789338790.1317828,145
2026-09-13 19:33:10.139,1789338790.139475,179
2026-09-13 19:33:10.147,1789338790.1471674,194
2026-09-13 19:33:10.154,1789338790.1548598,208
2026-09-13 19:33:10.162,1789338790.162552,252
2026-09-13 19:33:10.170,1789338790.1702442,312
2026-09-13 19:33:10.177,1789338790.1779366,346
2026-09-13 19:33:10.185,1789338790.185629,358
2026-09-13 19:33:10.193,1789338790.1933212,373
2026-09-13 19:33:10.201,1789338790.2010136,378
2026-09-13 19:33:10.208,1789338790.208706,354
2026-09-13 19:33:10.216,1789338790.2163982,307
2026-09-13 19:33:10.224,1789338790.2240906,242
2026-09-13 19:33:10.231,1789338790.2317827,157
2026-09-13 19:33:10.239,1789338790.239475,70
2026-09-13 19:33:10.247,1789338790.2471673,7
2026-09-13 19:33:10.254,1789338790.2548597,-41
2026-09-13 19:33:10.262,1789338790.262552,-80
2026-09-13 19:33:10.270,1789338790.2702444,-89
2026-09-13 19:33:10.277,1789338790.2779367,-89
2026-09-13 19:33:10.285,1789338790.285629,-97
2026-09-13 19:33:10.293,1789338790.2933214,-92
2026-09-13 19:33:10.301,1789338790.3010135,-84
2026-09-13 19:33:10.308,1789338790.3087058,-80
2026-09-13 19:33:10.316,1789338790.3163981,-70
2026-09-13 19:33:10.323,1789338790.3235285,-72
2026-09-13 19:33:10.331,1789338790.3312209,-80
2026-09-13 19:33:10.338,1789338790.3389132,-55
2026-09-13 19:33:10.346,1789338790.3466055,-38
2026-09-13 19:33:10.354,1789338790.3542979,-43
2026-09-13 19:33:10.361,1789338790.36199,-36
2026-09-13 19:33:10.369,1789338790.3696823,-19
2026-09-13 19:33:10.377,1789338790.3773746,-12
2026-09-13 19:33:10.385,1789338790.385067,-4
2026-09-13 19:33:10.392,1789338790.3927593,0
2026-09-13 19:33:10.400,1789338790.4004517,4
2026-09-13 19:33:10.408,1789338790.408144,7
2026-09-13 19:33:10.415,1789338790.4158363,-4
2026-09-13 19:33:10.423,1789338790.4235284,-9
2026-09-13 19:33:10.431,1789338790.4312208,4
2026-09-13 19:33:10.438,1789338790.438913,19
2026-09-13 19:33:10.446,1789338790.4466054,16
2026-09-13 19:33:10.454,1789338790.4542978,9
2026-09-13 19:33:10.461,1789338790.46199,-2
2026-09-13 19:33:10.469,1789338790.4696825,-2
2026-09-13 19:33:10.477,1789338790.4773748,24
2026-09-13 19:33:10.485,1789338790.485067,38
2026-09-13 19:33:10.492,1789338790.4927592,21
2026-09-13 19:33:10.500,1789338790.5004516,9
2026-09-13 19:33:10.508,1789338790.508144,21
2026-09-13 19:33:10.515,1789338790.5158362,29
2026-09-13 19:33:10.523,1789338790.5235286,33
2026-09-13 19:33:10.531,1789338790.531221,53
2026-09-13 19:33:10.538,1789338790.5389132,75
2026-09-13 19:33:10.546,1789338790.5466053,77
2026-09-13 19:33:10.554,1789338790.5542977,70
2026-09-13 19:33:10.561,1789338790.56199,70
2026-09-13 19:33:10.569,1789338790.5696824,65
2026-09-13 19:33:10.577,1789338790.5773747,48
2026-09-13 19:33:10.585,1789338790.585067,31
2026-09-13 19:33:10.592,1789338790.5927594,21
2026-09-13 19:33:10.600,1789338790.6004517,26
2026-09-13 19:33:10.608,1789338790.6081438,29
2026-09-13 19:33:10.615,1789338790.6158361,21
2026-09-13 19:33:10.623,1789338790.6235285,24
2026-09-13 19:33:10.631,1789338790.6312208,33
2026-09-13 19:33:10.638,1789338790.6389132,33
2026-09-13 19:33:10.646,1789338790.6466055,33
2026-09-13 19:33:10.654,1789338790.6542978,58
2026-09-13 19:33:10.661,1789338790.6619902,194
2026-09-13 19:33:10.669,1789338790.6696823,540
2026-09-13 19:33:10.677,1789338790.6773746,982
2026-09-13 19:33:10.685,1789338790.685067,1149
2026-09-13 19:33:10.692,1789338790.6927593,649
2026-09-13 19:33:10.700,1789338790.7004516,-174
2026-09-13 19:33:10.708,1789338790.708144,-380
2026-09-13 19:33:10.715,1789338790.7158363,-60
2026-09-13 19:33:10.723,1789338790.7235286,0
2026-09-13 19:33:10.731,1789338790.7312207,-94
2026-09-13 19:33:10.738,1789338790.738913,-38
2026-09-13 19:33:10.746,1789338790.7466054,-9
2026-09-13 19:33:10.754,1789338790.7542977,-38
2026-09-13 19:33:10.761,1789338790.76199,-21
2026-09-13 19:33:10.769,1789338790.7696824,-2
2026-09-13 19:33:10.777,1789338790.7773747,-9
2026-09-13 19:33:10.785,1789338790.785067,2
2026-09-13 19:33:10.792,1789338790.7927592,19
2026-09-13 19:33:10.800,1789338790.8004515,19
2026-09-13 19:33:10.808,1789338790.8081439,24
2026-09-13 19:33:10.815,1789338790.8158362,41
2026-09-13 19:33:10.823,1789338790.8235285,50
2026-09-13 19:33:10.831,1789338790.8312209,58
2026-09-13 19:33:10.838,1789338790.8389132,72
2026-09-13 19:33:10.846,1789338790.8466055,82
2026-09-13 19:33:10.854,1789338790.8542979,92
2026-09-13 19:33:10.861,1789338790.86199,111
2026-09-13 19:33:10.869,1789338790.8696823,138
2026-09-13 19:33:10.877,1789338790.8773746,174
2026-09-13 19:33:10.884,1789338790.8845055,203
2026-09-13 19:33:10.892,1789338790.8921978,232
2026-09-13 19:33:10.899,1789338790.8998902,269
2026-09-13 19:33:10.907,1789338790.9075825,298
2026-09-13 19:33:10.915,1789338790.9152749,317
2026-09-13 19:33:10.922,1789338790.922967,337
2026-09-13 19:33:10.930,1789338790.9306593,332
2026-09-13 19:33:10.938,1789338790.9383516,298
2026-09-13 19:33:10.946,1789338790.946044,249
2026-09-13 19:33:10.953,1789338790.9537363,179
2026-09-13 19:33:10.961,1789338790.9614286,101
2026-09-13 19:33:10.969,1789338790.969121,29
2026-09-13 19:33:10.976,1789338790.9768133,-24
2026-09-13 19:33:10.984,1789338790.9845054,-55
2026-09-13 19:33:10.992,1789338790.9921978,-82
2026-09-13 19:33:10.999,1789338790.99989,-106
2026-09-13 19:33:11.007,1789338791.0075824,-113
2026-09-13 19:33:11.015,1789338791.0152748,-106
2026-09-13 19:33:11.022,1789338791.022967,-99
2026-09-13 19:33:11.030,1789338791.0306594,-99
2026-09-13 19:33:11.038,1789338791.0383518,-99
2026-09-13 19:33:11.046,1789338791.0460439,-92
2026-09-13 19:33:11.053,1789338791.0537362,-87
2026-09-13 19:33:11.061,1789338791.0614285,-80
2026-09-13 19:33:11.069,1789338791.069121,-72
2026-09-13 19:33:11.076,1789338791.0768132,-67
2026-09-13 19:33:11.084,1789338791.0845056,-58
2026-09-13 19:33:11.092,1789338791.092198,-41
2026-09-13 19:33:11.099,1789338791.0998902,-38
2026-09-13 19:33:11.107,1789338791.1075823,-43
2026-09-13 19:33:11.115,1789338791.1152747,-33
2026-09-13 19:33:11.122,1789338791.122967,-26
2026-09-13 19:33:11.130,1789338791.1306593,-29
2026-09-13 19:33:11.138,1789338791.1383517,-29
2026-09-13 19:33:11.146,1789338791.146044,-21
2026-09-13 19:33:11.153,1789338791.1537364,-19
2026-09-13 19:33:11.161,1789338791.1614287,-21
2026-09-13 19:33:11.169,1789338791.1691208,-24
2026-09-13 19:33:11.176,1789338791.1768131,-24
2026-09-13 19:33:11.184,1789338791.1845055,-19
2026-09-13 19:33:11.192,1789338791.1921978,-16
2026-09-13 19:33:11.199,1789338791.1998901,-14
2026-09-13 19:33:11.207,1789338791.2075825,-14
2026-09-13 19:33:11.215,1789338791.2152748,-14
2026-09-13 19:33:11.222,1789338791.2229671,-16
2026-09-13 19:33:11.230,1789338791.2306592,-16
2026-09-13 19:33:11.238,1789338791.2383516,-12
2026-09-13 19:33:11.246,1789338791.246044,-9
2026-09-13 19:33:11.253,1789338791.2537363,-7
2026-09-13 19:33:11.261,1789338791.2614286,-7
2026-09-13 19:33:11.269,1789338791.269121,-2
2026-09-13 19:33:11.276,1789338791.2768133,7
2026-09-13 19:33:11.284,1789338791.2845056,26
2026-09-13 19:33:11.292,1789338791.2921977,46
2026-09-13 19:33:11.299,1789338791.29989,38
2026-09-13 19:33:11.307,1789338791.3075824,29
2026-09-13 19:33:11.315,1789338791.3152747,36
2026-09-13 19:33:11.322,1789338791.322967,33
2026-09-13 19:33:11.330,1789338791.3306594,4
2026-09-13 19:33:11.338,1789338791.3383517,-14
2026-09-13 19:33:11.346,1789338791.346044,-12
2026-09-13 19:33:11.353,1789338791.3537362,-7
2026-09-13 19:33:11.361,1789338791.3614285,-4
2026-09-13 19:33:11.369,1789338791.3691208,-7
2026-09-13 19:33:11.376,1789338791.3768132,-2
2026-09-13 19:33:11.384,1789338791.3845055,7
2026-09-13 19:33:11.392,1789338791.3921978,2
2026-09-13 19:33:11.399,1789338791.3998902,-9
2026-09-13 19:33:11.407,1789338791.4075825,19
2026-09-13 19:33:11.415,1789338791.4152749,169
2026-09-13 19:33:11.422,1789338791.422967,492
2026-09-13 19:33:11.430,1789338791.4306593,885
2026-09-13 19:33:11.438,1789338791.4383516,1035
2026-09-13 19:33:11.445,1789338791.4454823,569
2026-09-13 19:33:11.453,1789338791.4531746,-167
2026-09-13 19:33:11.460,1789338791.460867,-322
2026-09-13 19:33:11.468,1789338791.4685593,-53
2026-09-13 19:33:11.476,1789338791.4762516,-41
2026-09-13 19:33:11.483,1789338791.4839437,-135
2026-09-13 19:33:11.491,1789338791.491636,-80
2026-09-13 19:33:11.499,1789338791.4993284,-50
2026-09-13 19:33:11.507,1789338791.5070207,-75
2026-09-13 19:33:11.514,1789338791.514713,-55
2026-09-13 19:33:11.522,1789338791.5224054,-31
2026-09-13 19:33:11.530,1789338791.5300977,-36
2026-09-13 19:33:11.537,1789338791.53779,-29
2026-09-13 19:33:11.545,1789338791.5454822,-14
2026-09-13 19:33:11.553,1789338791.5531745,-7
2026-09-13 19:33:11.560,1789338791.5608668,0
2026-09-13 19:33:11.568,1789338791.5685592,7
2026-09-13 19:33:11.576,1789338791.5762515,14
2026-09-13 19:33:11.583,1789338791.5839438,21
2026-09-13 19:33:11.591,1789338791.5916362,38
2026-09-13 19:33:11.599,1789338791.5993285,53
2026-09-13 19:33:11.607,1789338791.6070206,60
2026-09-13 19:33:11.614,1789338791.614713,75
2026-09-13 19:33:11.622,1789338791.6224053,94
2026-09-13 19:33:11.630,1789338791.6300976,116
2026-09-13 19:33:11.637,1789338791.63779,140
2026-09-13 19:33:11.645,1789338791.6454823,167
2026-09-13 19:33:11.653,1789338791.6531746,191
2026-09-13 19:33:11.660,1789338791.660867,223
2026-09-13 19:33:11.668,1789338791.668559,244
2026-09-13 19:33:11.676,1789338791.6762514,252
2026-09-13 19:33:11.683,1789338791.6839437,247
2026-09-13 19:33:11.691,1789338791.691636,230
2026-09-13 19:33:11.699,1789338791.6993284,196
2026-09-13 19:33:11.707,1789338791.7070208,143
2026-09-13 19:33:11.714,1789338791.714713,75
2026-09-13 19:33:11.722,1789338791.7224054,16
2026-09-13 19:33:11.730,1789338791.7300975,-21
2026-09-13 19:33:11.737,1789338791.7377899,-48
2026-09-13 19:33:11.745,1789338791.7454822,-77
2026-09-13 19:33:11.753,1789338791.7531745,-94
2026-09-13 19:33:11.760,1789338791.7608669,-92
2026-09-13 19:33:11.768,1789338791.7685592,-89
2026-09-13 19:33:11.776,1789338791.7762516,-87
2026-09-13 19:33:11.783,1789338791.783944,-84
2026-09-13 19:33:11.791,1789338791.791636,-77
2026-09-13 19:33:11.799,1789338791.7993283,-65
2026-09-13 19:33:11.807,1789338791.8070207,-55
2026-09-13 19:33:11.814,1789338791.814713,-53
2026-09-13 19:33:11.822,1789338791.8224053,-48
2026-09-13 19:33:11.830,1789338791.8300977,-46
2026-09-13 19:33:11.837,1789338791.83779,-43
2026-09-13 19:33:11.845,1789338791.8454823,-33
2026-09-13 19:33:11.853,1789338791.8531744,-26
2026-09-13 19:33:11.860,1789338791.8608668,-24
2026-09-13 19:33:11.868,1789338791.8685591,-24
2026-09-13 19:33:11.876,1789338791.8762515,-21
2026-09-13 19:33:11.883,1789338791.8839438,-16
2026-09-13 19:33:11.891,1789338791.8916361,-9
2026-09-13 19:33:11.899,1789338791.8993285,-12
2026-09-13 19:33:11.907,1789338791.9070208,-14
2026-09-13 19:33:11.914,1789338791.914713,-12
2026-09-13 19:33:11.922,1789338791.9224052,-7
2026-09-13 19:33:11.930,1789338791.9300976,-9
2026-09-13 19:33:11.937,1789338791.93779,-12
2026-09-13 19:33:11.945,1789338791.9454823,-7
2026-09-13 19:33:11.953,1789338791.9531746,-4
2026-09-13 19:33:11.960,1789338791.960867,-9
2026-09-13 19:33:11.968,1789338791.9685593,-14
2026-09-13 19:33:11.976,1789338791.9762516,-2
2026-09-13 19:33:11.983,1789338791.9839437,9
2026-09-13 19:33:11.991,1789338791.991636,9
2026-09-13 19:33:11.999,1789338791.9993284,0
2026-09-13 19:33:12.006,1789338792.006459,0
2026-09-13 19:33:12.014,1789338792.0141513,4
2026-09-13 19:33:12.021,1789338792.0218437,7
2026-09-13 19:33:12.029,1789338792.029536,9
2026-09-13 19:33:12.037,1789338792.0372283,7
2026-09-13 19:33:12.044,1789338792.0449204,7
2026-09-13 19:33:12.052,1789338792.0526128,14
2026-09-13 19:33:12.060,1789338792.060305,14
2026-09-13 19:33:12.067,1789338792.0679975,16
2026-09-13 19:33:12.075,1789338792.0756898,16
2026-09-13 19:33:12.083,1789338792.0833821,14
2026-09-13 19:33:12.091,1789338792.0910745,16
2026-09-13 19:33:12.098,1789338792.0987668,21
2026-09-13 19:33:12.106,1789338792.106459,21
2026-09-13 19:33:12.114,1789338792.1141512,21
2026-09-13 19:33:12.121,1789338792.1218436,26
2026-09-13 19:33:12.129,1789338792.129536,24
2026-09-13 19:33:12.137,1789338792.1372283,21
2026-09-13 19:33:12.144,1789338792.1449206,29
2026-09-13 19:33:12.152,1789338792.152613,36
2026-09-13 19:33:12.160,1789338792.1603053,33
2026-09-13 19:33:12.167,1789338792.1679974,31
2026-09-13 19:33:12.175,1789338792.1756897,29
2026-09-13 19:33:12.183,1789338792.183382,29
2026-09-13 19:33:12.191,1789338792.1910744,36
2026-09-13 19:33:12.198,1789338792.1987667,38
2026-09-13 19:33:12.206,1789338792.206459,31
2026-09-13 19:33:12.214,1789338792.2141514,29
2026-09-13 19:33:12.221,1789338792.2218437,36
2026-09-13 19:33:12.229,1789338792.2295358,36
2026-09-13 19:33:12.237,1789338792.2372282,36
2026-09-13 19:33:12.244,1789338792.2449205,38
2026-09-13 19:33:12.252,1789338792.2526128,36
2026-09-13 19:33:12.260,1789338792.2603052,33
2026-09-13 19:33:12.267,1789338792.2679975,33
2026-09-13 19:33:12.275,1789338792.2756898,33
2026-09-13 19:33:12.283,1789338792.2833822,31
2026-09-13 19:33:12.291,1789338792.2910743,36
2026-09-13 19:33:12.298,1789338792.2987666,41
2026-09-13 19:33:12.306,1789338792.306459,41
2026-09-13 19:33:12.314,1789338792.3141513,36
2026-09-13 19:33:12.321,1789338792.3218436,33
2026-09-13 19:33:12.329,1789338792.329536,36
2026-09-13 19:33:12.337,1789338792.3372283,36
2026-09-13 19:33:12.344,1789338792.3449206,31
2026-09-13 19:33:12.352,1789338792.3526127,41
2026-09-13 19:33:12.360,1789338792.360305,53
2026-09-13 19:33:12.367,1789338792.3679974,63
2026-09-13 19:33:12.375,1789338792.3756897,77
2026-09-13 19:33:12.383,1789338792.383382,82
2026-09-13 19:33:12.391,1789338792.3910744,67
2026-09-13 19:33:12.398,1789338792.3987668,60
2026-09-13 19:33:12.406,1789338792.406459,65
2026-09-13 19:33:12.414,1789338792.4141512,48
2026-09-13 19:33:12.421,1789338792.4218435,26
2026-09-13 19:33:12.429,1789338792.4295359,19
2026-09-13 19:33:12.437,1789338792.4372282,21
2026-09-13 19:33:12.444,1789338792.4449205,19
2026-09-13 19:33:12.452,1789338792.4526129,19
2026-09-13 19:33:12.460,1789338792.4603052,19
2026-09-13 19:33:12.467,1789338792.4679976,21
2026-09-13 19:33:12.475,1789338792.4756896,19
2026-09-13 19:33:12.483,1789338792.483382,14
2026-09-13 19:33:12.491,1789338792.4910743,26
2026-09-13 19:33:12.498,1789338792.4987667,123
2026-09-13 19:33:12.506,1789338792.506459,383
2026-09-13 19:33:12.514,1789338792.5141513,759
2026-09-13 19:33:12.521,1789338792.5218437,1052
2026-09-13 19:33:12.529,1789338792.529536,814
2026-09-13 19:33:12.537,1789338792.5372283,46
2026-09-13 19:33:12.544,1789338792.5449204,-346
2026-09-13 19:33:12.552,1789338792.5526128,-121
2026-09-13 19:33:12.560,1789338792.560305,-24
2026-09-13 19:33:12.567,1789338792.5674665,-133
2026-09-13 19:33:12.575,1789338792.5751588,-99
2026-09-13 19:33:12.582,1789338792.5828512,-43
2026-09-13 19:33:12.590,1789338792.5905435,-72
2026-09-13 19:33:12.598,1789338792.5982358,-72
2026-09-13 19:33:12.605,1789338792.605928,-43
2026-09-13 19:33:12.613,1789338792.6136203,-43
2026-09-13 19:33:12.621,1789338792.6213126,-41
2026-09-13 19:33:12.629,1789338792.629005,-29
2026-09-13 19:33:12.636,1789338792.6366973,-21
2026-09-13 19:33:12.644,1789338792.6443896,-16
2026-09-13 19:33:12.652,1789338792.652082,-9
2026-09-13 19:33:12.659,1789338792.6597743,-2
2026-09-13 19:33:12.667,1789338792.6674664,7
2026-09-13 19:33:12.675,1789338792.6751587,21
2026-09-13 19:33:12.682,1789338792.682851,29
2026-09-13 19:33:12.690,1789338792.6905434,38
2026-09-13 19:33:12.698,1789338792.6982358,48
2026-09-13 19:33:12.705,1789338792.705928,63
2026-09-13 19:33:12.713,1789338792.7136204,82
2026-09-13 19:33:12.721,1789338792.7213128,104
2026-09-13 19:33:12.729,1789338792.7290049,126
2026-09-13 19:33:12.736,1789338792.7366972,147
2026-09-13 19:33:12.744,1789338792.7443895,174
2026-09-13 19:33:12.752,1789338792.7520819,191
2026-09-13 19:33:12.759,1789338792.7597742,203
2026-09-13 19:33:12.767,1789338792.7674665,213
2026-09-13 19:33:12.775,1789338792.775159,210
2026-09-13 19:33:12.782,1789338792.7828512,191
2026-09-13 19:33:12.790,1789338792.7905433,164
2026-09-13 19:33:12.798,1789338792.7982357,123
2026-09-13 19:33:12.805,1789338792.805928,72
2026-09-13 19:33:12.813,1789338792.8136203,24
2026-09-13 19:33:12.821,1789338792.8213127,-21
2026-09-13 19:33:12.829,1789338792.829005,-55
2026-09-13 19:33:12.836,1789338792.8366973,-72
2026-09-13 19:33:12.844,1789338792.8443897,-84
2026-09-13 19:33:12.852,1789338792.8520818,-97
2026-09-13 19:33:12.859,1789338792.859774,-99
2026-09-13 19:33:12.867,1789338792.8674664,-92
2026-09-13 19:33:12.875,1789338792.8751588,-87
2026-09-13 19:33:12.882,1789338792.8828511,-84
2026-09-13 19:33:12.890,1789338792.8905435,-77
2026-09-13 19:33:12.898,1789338792.8982358,-70
2026-09-13 19:33:12.905,1789338792.9059281,-60
2026-09-13 19:33:12.913,1789338792.9136202,-53
2026-09-13 19:33:12.921,1789338792.9213126,-48
2026-09-13 19:33:12.929,1789338792.929005,-46
2026-09-13 19:33:12.936,1789338792.9366972,-43
2026-09-13 19:33:12.944,1789338792.9443896,-38
2026-09-13 19:33:12.952,1789338792.952082,-38
2026-09-13 19:33:12.959,1789338792.9597743,-38
2026-09-13 19:33:12.967,1789338792.9674666,-38
2026-09-13 19:33:12.975,1789338792.9751587,-36
2026-09-13 19:33:12.982,1789338792.982851,-33
2026-09-13 19:33:12.990,1789338792.9905434,-33
2026-09-13 19:33:12.998,1789338792.9982357,-31
2026-09-13 19:33:13.005,1789338793.005928,-31
2026-09-13 19:33:13.013,1789338793.0136204,-33
2026-09-13 19:33:13.021,1789338793.0213127,-31
2026-09-13 19:33:13.029,1789338793.029005,-29
2026-09-13 19:33:13.036,1789338793.0366971,-29
2026-09-13 19:33:13.044,1789338793.0443895,-24
2026-09-13 19:33:13.052,1789338793.0520818,-14
2026-09-13 19:33:13.059,1789338793.0597742,-16
2026-09-13 19:33:13.067,1789338793.0674665,-21
2026-09-13 19:33:13.075,1789338793.0751588,-16
2026-09-13 19:33:13.082,1789338793.0828512,-12
2026-09-13 19:33:13.090,1789338793.0905435,-7
2026-09-13 19:33:13.098,1789338793.0982358,-4
2026-09-13 19:33:13.105,1789338793.105928,-2
2026-09-13 19:33:13.113,1789338793.1136203,-2
2026-09-13 19:33:13.121,1789338793.1213126,-2
2026-09-13 19:33:13.128,1789338793.128443,-7
2026-09-13 19:33:13.136,1789338793.1361353,-4
2026-09-13 19:33:13.143,1789338793.1438277,0
2026-09-13 19:33:13.151,1789338793.15152,2
2026-09-13 19:33:13.159,1789338793.1592124,7
2026-09-13 19:33:13.166,1789338793.1669044,9
2026-09-13 19:33:13.174,1789338793.1745968,7
2026-09-13 19:33:13.182,1789338793.1822891,4
2026-09-13 19:33:13.189,1789338793.1899815,9
2026-09-13 19:33:13.197,1789338793.1976738,12
2026-09-13 19:33:13.205,1789338793.2053661,14
2026-09-13 19:33:13.213,1789338793.2130585,9
2026-09-13 19:33:13.220,1789338793.2207508,12
2026-09-13 19:33:13.228,1789338793.228443,16
2026-09-13 19:33:13.236,1789338793.2361352,16
2026-09-13 19:33:13.243,1789338793.2438276,14
2026-09-13 19:33:13.251,1789338793.25152,16
2026-09-13 19:33:13.259,1789338793.2592123,16
2026-09-13 19:33:13.266,1789338793.2669046,14
2026-09-13 19:33:13.274,1789338793.274597,16
2026-09-13 19:33:13.282,1789338793.2822893,16
2026-09-13 19:33:13.289,1789338793.2899814,16
2026-09-13 19:33:13.297,1789338793.2976737,14
2026-09-13 19:33:13.305,1789338793.305366,14
2026-09-13 19:33:13.313,1789338793.3130584,16
2026-09-13 19:33:13.320,1789338793.3207507,21
2026-09-13 19:33:13.328,1789338793.328443,21
2026-09-13 19:33:13.336,1789338793.3361354,24
2026-09-13 19:33:13.343,1789338793.3438277,24
2026-09-13 19:33:13.351,1789338793.3515198,24
2026-09-13 19:33:13.359,1789338793.3592122,24
2026-09-13 19:33:13.366,1789338793.3669045,16
2026-09-13 19:33:13.374,1789338793.3745968,12
2026-09-13 19:33:13.382,1789338793.3822892,16
2026-09-13 19:33:13.389,1789338793.3899815,19
2026-09-13 19:33:13.397,1789338793.3976738,21
2026-09-13 19:33:13.405,1789338793.4053662,19
2026-09-13 19:33:13.413,1789338793.4130583,19
2026-09-13 19:33:13.420,1789338793.4207506,24
2026-09-13 19:33:13.428,1789338793.428443,21
2026-09-13 19:33:13.436,1789338793.4361353,12
2026-09-13 19:33:13.443,1789338793.4438276,9
2026-09-13 19:33:13.451,1789338793.45152,19
2026-09-13 19:33:13.459,1789338793.4592123,33
2026-09-13 19:33:13.466,1789338793.4669046,46
2026-09-13 19:33:13.474,1789338793.4745967,60
2026-09-13 19:33:13.482,1789338793.482289,67
2026-09-13 19:33:13.489,1789338793.4899814,55
2026-09-13 19:33:13.497,1789338793.4976737,46
2026-09-13 19:33:13.505,1789338793.505366,48
2026-09-13 19:33:13.513,1789338793.5130584,36
2026-09-13 19:33:13.520,1789338793.5207508,12
2026-09-13 19:33:13.528,1789338793.528443,2
2026-09-13 19:33:13.536,1789338793.5361352,2
2026-09-13 19:33:13.543,1789338793.5438275,0
2026-09-13 19:33:13.551,1789338793.5515199,-2
2026-09-13 19:33:13.559,1789338793.5592122,2
2026-09-13 19:33:13.566,1789338793.5669045,7
2026-09-13 19:33:13.574,1789338793.574597,4
2026-09-13 19:33:13.582,1789338793.5822892,-2
2026-09-13 19:33:13.589,1789338793.5899816,12
2026-09-13 19:33:13.597,1789338793.5976737,113
2026-09-13 19:33:13.605,1789338793.605366,358
2026-09-13 19:33:13.613,1789338793.6130583,720
2026-09-13 19:33:13.620,1789338793.6207507,1057
2026-09-13 19:33:13.628,1789338793.628443,880
2026-09-13 19:33:13.636,1789338793.6361353,87
2026-09-13 19:33:13.643,1789338793.6438277,-356
2026-09-13 19:33:13.651,1789338793.65152,-123
2026-09-13 19:33:13.659,1789338793.6592124,-16
2026-09-13 19:33:13.666,1789338793.6669044,-138
2026-09-13 19:33:13.674,1789338793.6745968,-106
2026-09-13 19:33:13.682,1789338793.6822891,-46
2026-09-13 19:33:13.689,1789338793.6894302,-77
2026-09-13 19:33:13.697,1789338793.6971226,-80
2026-09-13 19:33:13.704,1789338793.704815,-48
2026-09-13 19:33:13.712,1789338793.7125072,-46
2026-09-13 19:33:13.720,1789338793.7201996,-41
2026-09-13 19:33:13.727,1789338793.7278917,-29
2026-09-13 19:33:13.735,1789338793.735584,-24
2026-09-13 19:33:13.743,1789338793.7432764,-16
2026-09-13 19:33:13.750,1789338793.7509687,-2
2026-09-13 19:33:13.758,1789338793.758661,9
2026-09-13 19:33:13.766,1789338793.7663534,16
2026-09-13 19:33:13.774,1789338793.7740457,26
2026-09-13 19:33:13.781,1789338793.781738,36
2026-09-13 19:33:13.789,1789338793.7894301,43
2026-09-13 19:33:13.797,1789338793.7971225,58
2026-09-13 19:33:13.804,1789338793.8048148,75
2026-09-13 19:33:13.812,1789338793.8125072,97
2026-09-13 19:33:13.820,1789338793.8201995,118
2026-09-13 19:33:13.827,1789338793.8278918,143
2026-09-13 19:33:13.835,1789338793.8355842,169
2026-09-13 19:33:13.843,1789338793.8432765,191
2026-09-13 19:33:13.850,1789338793.8509686,215
2026-09-13 19:33:13.858,1789338793.858661,237
2026-09-13 19:33:13.866,1789338793.8663533,242
2026-09-13 19:33:13.874,1789338793.8740456,237
2026-09-13 19:33:13.881,1789338793.881738,227
2026-09-13 19:33:13.889,1789338793.8894303,198
2026-09-13 19:33:13.897,1789338793.8971226,145
2026-09-13 19:33:13.904,1789338793.904815,92
2026-09-13 19:33:13.912,1789338793.912507,43
2026-09-13 19:33:13.920,1789338793.9201994,-2
2026-09-13 19:33:13.927,1789338793.9278917,-38
2026-09-13 19:33:13.935,1789338793.935584,-63
2026-09-13 19:33:13.943,1789338793.9432764,-75
2026-09-13 19:33:13.950,1789338793.9509687,-80
2026-09-13 19:33:13.958,1789338793.958661,-77
2026-09-13 19:33:13.966,1789338793.9663534,-75
2026-09-13 19:33:13.974,1789338793.9740455,-72
2026-09-13 19:33:13.981,1789338793.9817379,-67
2026-09-13 19:33:13.989,1789338793.9894302,-55
2026-09-13 19:33:13.997,1789338793.9971225,-48
2026-09-13 19:33:14.004,1789338794.0048149,-43
2026-09-13 19:33:14.012,1789338794.0125072,-41
2026-09-13 19:33:14.020,1789338794.0201995,-36
2026-09-13 19:33:14.027,1789338794.0278919,-29
2026-09-13 19:33:14.035,1789338794.035584,-21
2026-09-13 19:33:14.043,1789338794.0432763,-19
2026-09-13 19:33:14.050,1789338794.0509686,-16
2026-09-13 19:33:14.058,1789338794.058661,-9
2026-09-13 19:33:14.066,1789338794.0663533,-4
2026-09-13 19:33:14.074,1789338794.0740457,0
2026-09-13 19:33:14.081,1789338794.081738,-4
2026-09-13 19:33:14.089,1789338794.0894303,-7
2026-09-13 19:33:14.097,1789338794.0971224,-2
2026-09-13 19:33:14.104,1789338794.1048148,0
2026-09-13 19:33:14.112,1789338794.112507,-2
2026-09-13 19:33:14.120,1789338794.1201994,-9
2026-09-13 19:33:14.127,1789338794.1278918,-4
2026-09-13 19:33:14.135,1789338794.135584,9
2026-09-13 19:33:14.143,1789338794.1432765,16
2026-09-13 19:33:14.150,1789338794.1509688,9
2026-09-13 19:33:14.158,1789338794.158661,4
2026-09-13 19:33:14.166,1789338794.1663532,14
2026-09-13 19:33:14.174,1789338794.1740456,21
2026-09-13 19:33:14.181,1789338794.181738,14
2026-09-13 19:33:14.189,1789338794.1894302,12
2026-09-13 19:33:14.197,1789338794.1971226,9
2026-09-13 19:33:14.204,1789338794.204815,16
2026-09-13 19:33:14.212,1789338794.2125072,26
2026-09-13 19:33:14.220,1789338794.2201996,29
2026-09-13 19:33:14.227,1789338794.2278917,26
2026-09-13 19:33:14.235,1789338794.235584,29
2026-09-13 19:33:14.243,1789338794.2432764,36
2026-09-13 19:33:14.250,1789338794.2504272,36
2026-09-13 19:33:14.258,1789338794.2581196,31
2026-09-13 19:33:14.265,1789338794.265812,29
2026-09-13 19:33:14.273,1789338794.2735043,24
2026-09-13 19:33:14.281,1789338794.2811966,31
2026-09-13 19:33:14.288,1789338794.2888887,38
2026-09-13 19:33:14.296,1789338794.296581,36
2026-09-13 19:33:14.304,1789338794.3042734,36
2026-09-13 19:33:14.311,1789338794.3119657,43
2026-09-13 19:33:14.319,1789338794.319658,43
2026-09-13 19:33:14.327,1789338794.3273504,41
2026-09-13 19:33:14.335,1789338794.3350427,38
2026-09-13 19:33:14.342,1789338794.342735,38
2026-09-13 19:33:14.350,1789338794.3504272,41
2026-09-13 19:33:14.358,1789338794.3581195,38
2026-09-13 19:33:14.365,1789338794.3658118,36
2026-09-13 19:33:14.373,1789338794.3735042,41
2026-09-13 19:33:14.381,1789338794.3811965,41
2026-09-13 19:33:14.388,1789338794.3888888,38
2026-09-13 19:33:14.396,1789338794.3965812,38
2026-09-13 19:33:14.404,1789338794.4042735,36
2026-09-13 19:33:14.411,1789338794.4119656,31
2026-09-13 19:33:14.419,1789338794.419658,33
2026-09-13 19:33:14.427,1789338794.4273503,33
2026-09-13 19:33:14.435,1789338794.4350426,38
2026-09-13 19:33:14.442,1789338794.442735,38
2026-09-13 19:33:14.450,1789338794.4504273,36
2026-09-13 19:33:14.458,1789338794.4581196,36
2026-09-13 19:33:14.465,1789338794.465812,36
2026-09-13 19:33:14.473,1789338794.473504,31
2026-09-13 19:33:14.481,1789338794.4811964,24
2026-09-13 19:33:14.488,1789338794.4888887,24
2026-09-13 19:33:14.496,1789338794.496581,33
2026-09-13 19:33:14.504,1789338794.5042734,50
2026-09-13 19:33:14.511,1789338794.5119658,67
2026-09-13 19:33:14.519,1789338794.519658,84
2026-09-13 19:33:14.527,1789338794.5273504,80
2026-09-13 19:33:14.535,1789338794.5350425,58
2026-09-13 19:33:14.542,1789338794.5427349,53
2026-09-13 19:33:14.550,1789338794.5504272,58
2026-09-13 19:33:14.558,1789338794.5581195,36
2026-09-13 19:33:14.565,1789338794.5658119,14
2026-09-13 19:33:14.573,1789338794.5735042,16
2026-09-13 19:33:14.581,1789338794.5811965,19
2026-09-13 19:33:14.588,1789338794.588889,12
2026-09-13 19:33:14.596,1789338794.596581,9
2026-09-13 19:33:14.604,1789338794.6042733,16
2026-09-13 19:33:14.611,1789338794.6119657,21
2026-09-13 19:33:14.619,1789338794.619658,12
2026-09-13 19:33:14.627,1789338794.6273503,4
2026-09-13 19:33:14.635,1789338794.6350427,33
2026-09-13 19:33:14.642,1789338794.642735,164
2026-09-13 19:33:14.650,1789338794.6504273,448
2026-09-13 19:33:14.658,1789338794.6581194,848
2026-09-13 19:33:14.665,1789338794.6658118,1081
2026-09-13 19:33:14.673,1789338794.673504,628
2026-09-13 19:33:14.681,1789338794.6811965,-206
2026-09-13 19:33:14.688,1789338794.6888888,-380
2026-09-13 19:33:14.696,1789338794.6965811,-48
2026-09-13 19:33:14.704,1789338794.7042735,-38
2026-09-13 19:33:14.711,1789338794.7119658,-140
2026-09-13 19:33:14.719,1789338794.719658,-50
2026-09-13 19:33:14.727,1789338794.7273502,-16
2026-09-13 19:33:14.735,1789338794.7350426,-67
2026-09-13 19:33:14.742,1789338794.742735,-53
2026-09-13 19:33:14.750,1789338794.7504272,-14
2026-09-13 19:33:14.758,1789338794.7581196,-12
2026-09-13 19:33:14.765,1789338794.765812,-7
2026-09-13 19:33:14.773,1789338794.7735043,9
2026-09-13 19:33:14.781,1789338794.7811966,16
2026-09-13 19:33:14.788,1789338794.7888887,19
2026-09-13 19:33:14.796,1789338794.796581,26
2026-09-13 19:33:14.804,1789338794.8042734,38
2026-09-13 19:33:14.811,1789338794.811404,50
2026-09-13 19:33:14.819,1789338794.8190963,63
2026-09-13 19:33:14.826,1789338794.8267887,80
2026-09-13 19:33:14.834,1789338794.834481,92
2026-09-13 19:33:14.842,1789338794.8421733,99
2026-09-13 19:33:14.849,1789338794.8498654,123
2026-09-13 19:33:14.857,1789338794.8575578,155
2026-09-13 19:33:14.865,1789338794.86525,177
2026-09-13 19:33:14.872,1789338794.8729424,203
2026-09-13 19:33:14.880,1789338794.8806348,235
2026-09-13 19:33:14.888,1789338794.8883271,264
2026-09-13 19:33:14.896,1789338794.8960195,291
2026-09-13 19:33:14.903,1789338794.9037118,307
2026-09-13 19:33:14.911,1789338794.911404,307
2026-09-13 19:33:14.919,1789338794.9190962,298
2026-09-13 19:33:14.926,1789338794.9267886,274
2026-09-13 19:33:14.934,1789338794.934481,223
2026-09-13 19:33:14.942,1789338794.9421732,152
2026-09-13 19:33:14.949,1789338794.9498656,82
2026-09-13 19:33:14.957,1789338794.957558,21
2026-09-13 19:33:14.965,1789338794.9652503,-31
2026-09-13 19:33:14.972,1789338794.9729424,-67
2026-09-13 19:33:14.980,1789338794.9806347,-92
2026-09-13 19:33:14.988,1789338794.988327,-109
2026-09-13 19:33:14.996,1789338794.9960194,-113
2026-09-13 19:33:15.003,1789338795.0037117,-109
2026-09-13 19:33:15.011,1789338795.011404,-97
2026-09-13 19:33:15.019,1789338795.0190964,-92
2026-09-13 19:33:15.026,1789338795.0267887,-94
2026-09-13 19:33:15.034,1789338795.0344808,-87
2026-09-13 19:33:15.042,1789338795.0421731,-77
2026-09-13 19:33:15.049,1789338795.0498655,-63
2026-09-13 19:33:15.057,1789338795.0575578,-46
2026-09-13 19:33:15.065,1789338795.0652502,-41
2026-09-13 19:33:15.072,1789338795.0729425,-50
2026-09-13 19:33:15.080,1789338795.0806348,-46
2026-09-13 19:33:15.088,1789338795.0883272,-33
2026-09-13 19:33:15.096,1789338795.0960193,-31
2026-09-13 19:33:15.103,1789338795.1037116,-33
2026-09-13 19:33:15.111,1789338795.111404,-36
2026-09-13 19:33:15.119,1789338795.1190963,-31
2026-09-13 19:33:15.126,1789338795.1267886,-24
2026-09-13 19:33:15.134,1789338795.134481,-21
2026-09-13 19:33:15.142,1789338795.1421733,-24
2026-09-13 19:33:15.149,1789338795.1498656,-24
2026-09-13 19:33:15.157,1789338795.1575577,-24
2026-09-13 19:33:15.165,1789338795.16525,-24
2026-09-13 19:33:15.172,1789338795.1729424,-26
2026-09-13 19:33:15.180,1789338795.1806347,-29
2026-09-13 19:33:15.188,1789338795.188327,-19
2026-09-13 19:33:15.196,1789338795.1960194,-9
2026-09-13 19:33:15.203,1789338795.2037117,-12
2026-09-13 19:33:15.211,1789338795.211404,-14
2026-09-13 19:33:15.219,1789338795.2190962,-7
2026-09-13 19:33:15.226,1789338795.2267885,-7
2026-09-13 19:33:15.234,1789338795.2344809,-9
2026-09-13 19:33:15.242,1789338795.2421732,-2
2026-09-13 19:33:15.249,1789338795.2498655,4
2026-09-13 19:33:15.257,1789338795.2575579,2
2026-09-13 19:33:15.265,1789338795.2652502,0
2026-09-13 19:33:15.272,1789338795.2729425,2
2026-09-13 19:33:15.280,1789338795.2806346,0
2026-09-13 19:33:15.288,1789338795.288327,7
2026-09-13 19:33:15.296,1789338795.2960193,12
2026-09-13 19:33:15.303,1789338795.3037117,9
2026-09-13 19:33:15.311,1789338795.311404,16
2026-09-13 19:33:15.319,1789338795.3190963,24
2026-09-13 19:33:15.326,1789338795.3267887,12
2026-09-13 19:33:15.334,1789338795.334481,7
2026-09-13 19:33:15.342,1789338795.3421733,16
2026-09-13 19:33:15.349,1789338795.3498654,21
2026-09-13 19:33:15.357,1789338795.3575578,19
2026-09-13 19:33:15.365,1789338795.36525,29
2026-09-13 19:33:15.372,1789338795.3723807,50
2026-09-13 19:33:15.380,1789338795.380073,60
2026-09-13 19:33:15.387,1789338795.3877654,63
2026-09-13 19:33:15.395,1789338795.3954577,60
2026-09-13 19:33:15.403,1789338795.40315,60
2026-09-13 19:33:15.410,1789338795.4108422,67
2026-09-13 19:33:15.418,1789338795.4185345,55
2026-09-13 19:33:15.426,1789338795.4262269,24
2026-09-13 19:33:15.433,1789338795.4339192,21
2026-09-13 19:33:15.441,1789338795.4416115,29
2026-09-13 19:33:15.449,1789338795.4493039,16
2026-09-13 19:33:15.456,1789338795.4569962,2
2026-09-13 19:33:15.464,1789338795.4646885,9
2026-09-13 19:33:15.472,1789338795.4723806,24
2026-09-13 19:33:15.480,1789338795.480073,19
2026-09-13 19:33:15.487,1789338795.4877653,14
2026-09-13 19:33:15.495,1789338795.4954576,31
2026-09-13 19:33:15.503,1789338795.50315,63
2026-09-13 19:33:15.510,1789338795.5108423,203
2026-09-13 19:33:15.518,1789338795.5185347,535
2026-09-13 19:33:15.526,1789338795.526227,940
2026-09-13 19:33:15.533,1789338795.533919,1062
2026-09-13 19:33:15.541,1789338795.5416114,514
2026-09-13 19:33:15.549,1789338795.5493038,-254
2026-09-13 19:33:15.556,1789338795.556996,-334
2026-09-13 19:33:15.564,1789338795.5646884,-29
2026-09-13 19:33:15.572,1789338795.5723808,-36
2026-09-13 19:33:15.580,1789338795.580073,-104
2026-09-13 19:33:15.587,1789338795.5877655,-26
2026-09-13 19:33:15.595,1789338795.5954576,-19
2026-09-13 19:33:15.603,1789338795.60315,-41
2026-09-13 19:33:15.610,1789338795.6108422,-2
2026-09-13 19:33:15.618,1789338795.6185346,12
2026-09-13 19:33:15.626,1789338795.626227,-2
2026-09-13 19:33:15.633,1789338795.6339192,7
2026-09-13 19:33:15.641,1789338795.6416116,29
2026-09-13 19:33:15.649,1789338795.649304,43
2026-09-13 19:33:15.656,1789338795.656996,48
2026-09-13 19:33:15.664,1789338795.6646883,50
2026-09-13 19:33:15.672,1789338795.6723807,60
2026-09-13 19:33:15.680,1789338795.680073,80
2026-09-13 19:33:15.687,1789338795.6877654,89
2026-09-13 19:33:15.695,1789338795.6954577,89
2026-09-13 19:33:15.703,1789338795.70315,106
2026-09-13 19:33:15.710,1789338795.7108424,130
2026-09-13 19:33:15.718,1789338795.7185345,152
2026-09-13 19:33:15.726,1789338795.7262268,172
2026-09-13 19:33:15.733,1789338795.7339191,208
2026-09-13 19:33:15.741,1789338795.7416115,257
2026-09-13 19:33:15.749,1789338795.7493038,291
2026-09-13 19:33:15.756,1789338795.7569962,312
2026-09-13 19:33:15.764,1789338795.7646885,334
2026-09-13 19:33:15.772,1789338795.7723808,354
2026-09-13 19:33:15.780,1789338795.780073,349
2026-09-13 19:33:15.787,1789338795.7877653,329
2026-09-13 19:33:15.795,1789338795.7954576,298
2026-09-13 19:33:15.803,1789338795.80315,244
2026-09-13 19:33:15.810,1789338795.8108423,160
2026-09-13 19:33:15.818,1789338795.8185346,72
2026-09-13 19:33:15.826,1789338795.826227,14
2026-09-13 19:33:15.833,1789338795.8339193,-24
2026-09-13 19:33:15.841,1789338795.8416114,-60
2026-09-13 19:33:15.849,1789338795.8493037,-84
2026-09-13 19:33:15.856,1789338795.856996,-89
2026-09-13 19:33:15.864,1789338795.8646884,-87
2026-09-13 19:33:15.872,1789338795.8723807,-89
2026-09-13 19:33:15.880,1789338795.880073,-92
2026-09-13 19:33:15.887,1789338795.8877654,-82
2026-09-13 19:33:15.895,1789338795.8954577,-72
2026-09-13 19:33:15.903,1789338795.90315,-70
2026-09-13 19:33:15.910,1789338795.9108422,-60
2026-09-13 19:33:15.918,1789338795.9185345,-38
2026-09-13 19:33:15.926,1789338795.9262269,-29
2026-09-13 19:33:15.933,1789338795.9333577,-33
2026-09-13 19:33:15.941,1789338795.94105,-38
2026-09-13 19:33:15.948,1789338795.9487424,-31
2026-09-13 19:33:15.956,1789338795.9564347,-9
2026-09-13 19:33:15.964,1789338795.964127,12
2026-09-13 19:33:15.971,1789338795.9718192,14
2026-09-13 19:33:15.979,1789338795.9795115,-2
2026-09-13 19:33:15.987,1789338795.9872038,-12
2026-09-13 19:33:15.994,1789338795.9948962,-4
2026-09-13 19:33:16.002,1789338796.0025885,7
2026-09-13 19:33:16.010,1789338796.0102808,4
2026-09-13 19:33:16.017,1789338796.0179732,7
2026-09-13 19:33:16.025,1789338796.0256655,14
2026-09-13 19:33:16.033,1789338796.0333576,14
2026-09-13 19:33:16.041,1789338796.04105,16
2026-09-13 19:33:16.048,1789338796.0487423,29
2026-09-13 19:33:16.056,1789338796.0564346,14
2026-09-13 19:33:16.064,1789338796.064127,2
2026-09-13 19:33:16.071,1789338796.0718193,19
2026-09-13 19:33:16.079,1789338796.0795116,31
2026-09-13 19:33:16.087,1789338796.087204,21
2026-09-13 19:33:16.094,1789338796.094896,19
2026-09-13 19:33:16.102,1789338796.1025884,33
2026-09-13 19:33:16.110,1789338796.1102808,36
2026-09-13 19:33:16.117,1789338796.117973,29
2026-09-13 19:33:16.125,1789338796.1256654,38
2026-09-13 19:33:16.133,1789338796.1333578,36
2026-09-13 19:33:16.141,1789338796.14105,29
2026-09-13 19:33:16.148,1789338796.1487424,46
2026-09-13 19:33:16.156,1789338796.1564345,63
2026-09-13 19:33:16.164,1789338796.1641269,77
2026-09-13 19:33:16.171,1789338796.1718192,94
2026-09-13 19:33:16.179,1789338796.1795115,77
2026-09-13 19:33:16.187,1789338796.187204,63
2026-09-13 19:33:16.194,1789338796.1948962,80
2026-09-13 19:33:16.202,1789338796.2025886,77
2026-09-13 19:33:16.210,1789338796.210281,48
2026-09-13 19:33:16.217,1789338796.217973,33
2026-09-13 19:33:16.225,1789338796.2256653,26
2026-09-13 19:33:16.233,1789338796.2333577,26
2026-09-13 19:33:16.241,1789338796.24105,26
2026-09-13 19:33:16.248,1789338796.2487423,29
2026-09-13 19:33:16.256,1789338796.2564347,38
2026-09-13 19:33:16.264,1789338796.264127,43
2026-09-13 19:33:16.271,1789338796.2718194,29
2026-09-13 19:33:16.279,1789338796.2795115,19
2026-09-13 19:33:16.287,1789338796.2872038,48
2026-09-13 19:33:16.294,1789338796.2948961,177
2026-09-13 19:33:16.302,1789338796.3025885,470
2026-09-13 19:33:16.310,1789338796.3102808,885
2026-09-13 19:33:16.317,1789338796.3179731,1113
2026-09-13 19:33:16.325,1789338796.3256655,722
2026-09-13 19:33:16.333,1789338796.3333578,-80
2026-09-13 19:33:16.341,1789338796.34105,-358
2026-09-13 19:33:16.348,1789338796.3487422,-60
2026-09-13 19:33:16.356,1789338796.3564346,24
2026-09-13 19:33:16.364,1789338796.364127,-89
2026-09-13 19:33:16.371,1789338796.3718193,-46
2026-09-13 19:33:16.379,1789338796.3795116,4
2026-09-13 19:33:16.387,1789338796.387204,-36
2026-09-13 19:33:16.394,1789338796.3948963,-36
2026-09-13 19:33:16.402,1789338796.4025884,0
2026-09-13 19:33:16.410,1789338796.4102807,-2
2026-09-13 19:33:16.417,1789338796.417973,0
2026-09-13 19:33:16.425,1789338796.4256654,24
2026-09-13 19:33:16.433,1789338796.4333577,29
2026-09-13 19:33:16.441,1789338796.44105,31
2026-09-13 19:33:16.448,1789338796.4487424,41
2026-09-13 19:33:16.456,1789338796.4564347,48
2026-09-13 19:33:16.464,1789338796.464127,58
2026-09-13 19:33:16.471,1789338796.4718192,72
2026-09-13 19:33:16.479,1789338796.4795115,87
2026-09-13 19:33:16.487,1789338796.4872038,94
2026-09-13 19:33:16.494,1789338796.4943345,106
2026-09-13 19:33:16.502,1789338796.5020268,128
2026-09-13 19:33:16.509,1789338796.5097191,157
2026-09-13 19:33:16.517,1789338796.5174115,184
2026-09-13 19:33:16.525,1789338796.5251038,208
2026-09-13 19:33:16.532,1789338796.532796,247
2026-09-13 19:33:16.540,1789338796.5404882,288
2026-09-13 19:33:16.548,1789338796.5481806,305
2026-09-13 19:33:16.555,1789338796.555873,312
2026-09-13 19:33:16.563,1789338796.5635653,315
2026-09-13 19:33:16.571,1789338796.5712576,307
2026-09-13 19:33:16.578,1789338796.57895,281
2026-09-13 19:33:16.586,1789338796.5866423,225
2026-09-13 19:33:16.594,1789338796.5943344,143
2026-09-13 19:33:16.602,1789338796.6020267,67
2026-09-13 19:33:16.609,1789338796.609719,16
2026-09-13 19:33:16.617,1789338796.6174114,-29
2026-09-13 19:33:16.625,1789338796.6251037,-70
2026-09-13 19:33:16.632,1789338796.632796,-84
2026-09-13 19:33:16.640,1789338796.6404884,-89
2026-09-13 19:33:16.648,1789338796.6481807,-97
2026-09-13 19:33:16.655,1789338796.6558728,-97
2026-09-13 19:33:16.663,1789338796.6635652,-87
2026-09-13 19:33:16.671,1789338796.6712575,-87
2026-09-13 19:33:16.678,1789338796.6789498,-84
2026-09-13 19:33:16.686,1789338796.6866422,-72
2026-09-13 19:33:16.694,1789338796.6943345,-65
2026-09-13 19:33:16.702,1789338796.7020268,-60
2026-09-13 19:33:16.709,1789338796.7097192,-48
2026-09-13 19:33:16.717,1789338796.7174113,-41
2026-09-13 19:33:16.725,1789338796.7251036,-46
2026-09-13 19:33:16.732,1789338796.732796,-36
2026-09-13 19:33:16.740,1789338796.7404883,-24
2026-09-13 19:33:16.748,1789338796.7481806,-24
2026-09-13 19:33:16.755,1789338796.755873,-24
2026-09-13 19:33:16.763,1789338796.7635653,-14
2026-09-13 19:33:16.771,1789338796.7712576,-9
2026-09-13 19:33:16.778,1789338796.7789497,-12
2026-09-13 19:33:16.786,1789338796.786642,-14
2026-09-13 19:33:16.794,1789338796.7943344,-16
2026-09-13 19:33:16.802,1789338796.8020267,-14
2026-09-13 19:33:16.809,1789338796.809719,-9
2026-09-13 19:33:16.817,1789338796.8174114,-4
2026-09-13 19:33:16.825,1789338796.8251038,-2
2026-09-13 19:33:16.832,1789338796.832796,-2
2026-09-13 19:33:16.840,1789338796.8404882,-4
2026-09-13 19:33:16.848,1789338796.8481805,-9
2026-09-13 19:33:16.855,1789338796.8558729,-4
2026-09-13 19:33:16.863,1789338796.8635652,2
2026-09-13 19:33:16.871,1789338796.8712575,7
2026-09-13 19:33:16.878,1789338796.8789499,4
2026-09-13 19:33:16.886,1789338796.8866422,7
2026-09-13 19:33:16.894,1789338796.8943346,7
2026-09-13 19:33:16.902,1789338796.9020267,9
2026-09-13 19:33:16.909,1789338796.909719,14
2026-09-13 19:33:16.917,1789338796.9174113,16
2026-09-13 19:33:16.925,1789338796.9251037,12
2026-09-13 19:33:16.932,1789338796.932796,14
2026-09-13 19:33:16.940,1789338796.9404883,26
2026-09-13 19:33:16.948,1789338796.9481807,36
2026-09-13 19:33:16.955,1789338796.955873,50
2026-09-13 19:33:16.963,1789338796.963565,65
2026-09-13 19:33:16.971,1789338796.9712574,63
2026-09-13 19:33:16.978,1789338796.9789498,58
2026-09-13 19:33:16.986,1789338796.9866421,58
2026-09-13 19:33:16.994,1789338796.9943345,50
2026-09-13 19:33:17.002,1789338797.0020268,31
2026-09-13 19:33:17.009,1789338797.0097191,16
2026-09-13 19:33:17.017,1789338797.0174115,12
2026-09-13 19:33:17.025,1789338797.0251038,9
2026-09-13 19:33:17.032,1789338797.032796,12
2026-09-13 19:33:17.040,1789338797.0404882,19
2026-09-13 19:33:17.048,1789338797.0481806,24
2026-09-13 19:33:17.055,1789338797.0553417,24
2026-09-13 19:33:17.063,1789338797.063034,24
2026-09-13 19:33:17.070,1789338797.0707264,24
2026-09-13 19:33:17.078,1789338797.0784187,31
2026-09-13 19:33:17.086,1789338797.086111,126
2026-09-13 19:33:17.093,1789338797.0938032,378
2026-09-13 19:33:17.101,1789338797.1014955,734
2026-09-13 19:33:17.109,1789338797.1091878,984
2026-09-13 19:33:17.116,1789338797.1168802,742
2026-09-13 19:33:17.124,1789338797.1245725,31
2026-09-13 19:33:17.132,1789338797.1322649,-324
2026-09-13 19:33:17.139,1789338797.1399572,-99
2026-09-13 19:33:17.147,1789338797.1476495,7
2026-09-13 19:33:17.155,1789338797.1553416,-87
2026-09-13 19:33:17.163,1789338797.163034,-53
2026-09-13 19:33:17.170,1789338797.1707263,2
2026-09-13 19:33:17.178,1789338797.1784186,-24
2026-09-13 19:33:17.186,1789338797.186111,-21
2026-09-13 19:33:17.193,1789338797.1938033,4
2026-09-13 19:33:17.201,1789338797.2014956,4
2026-09-13 19:33:17.209,1789338797.209188,9
2026-09-13 19:33:17.216,1789338797.21688,24
2026-09-13 19:33:17.224,1789338797.2245724,26
2026-09-13 19:33:17.232,1789338797.2322648,24
2026-09-13 19:33:17.239,1789338797.239957,36
2026-09-13 19:33:17.247,1789338797.2476494,46
2026-09-13 19:33:17.255,1789338797.2553418,53
2026-09-13 19:33:17.263,1789338797.263034,60
2026-09-13 19:33:17.270,1789338797.2707264,72
2026-09-13 19:33:17.278,1789338797.2784185,87
2026-09-13 19:33:17.286,1789338797.2861109,97
2026-09-13 19:33:17.293,1789338797.2938032,109
2026-09-13 19:33:17.301,1789338797.3014956,128
2026-09-13 19:33:17.309,1789338797.309188,152
2026-09-13 19:33:17.316,1789338797.3168802,174
2026-09-13 19:33:17.324,1789338797.3245726,198
2026-09-13 19:33:17.332,1789338797.332265,223
2026-09-13 19:33:17.339,1789338797.339957,242
2026-09-13 19:33:17.347,1789338797.3476493,259
2026-09-13 19:33:17.355,1789338797.3553417,264
2026-09-13 19:33:17.363,1789338797.363034,252
2026-09-13 19:33:17.370,1789338797.3707263,225
2026-09-13 19:33:17.378,1789338797.3784187,184
2026-09-13 19:33:17.386,1789338797.386111,126
2026-09-13 19:33:17.393,1789338797.3938034,67
2026-09-13 19:33:17.401,1789338797.4014955,14
2026-09-13 19:33:17.409,1789338797.4091878,-29
2026-09-13 19:33:17.416,1789338797.4168801,-60
2026-09-13 19:33:17.424,1789338797.4245725,-77
2026-09-13 19:33:17.432,1789338797.4322648,-84
2026-09-13 19:33:17.439,1789338797.4399571,-92
2026-09-13 19:33:17.447,1789338797.4476495,-89
2026-09-13 19:33:17.455,1789338797.4553418,-82
2026-09-13 19:33:17.463,1789338797.463034,-82
2026-09-13 19:33:17.470,1789338797.4707263,-82
2026-09-13 19:33:17.478,1789338797.4784186,-72
2026-09-13 19:33:17.486,1789338797.486111,-63
2026-09-13 19:33:17.493,1789338797.4938033,-58
2026-09-13 19:33:17.501,1789338797.5014956,-55
2026-09-13 19:33:17.509,1789338797.509188,-48
2026-09-13 19:33:17.516,1789338797.5168803,-41
2026-09-13 19:33:17.524,1789338797.5245724,-38
2026-09-13 19:33:17.532,1789338797.5322647,-36
2026-09-13 19:33:17.539,1789338797.539957,-29
2026-09-13 19:33:17.547,1789338797.5476494,-29
2026-09-13 19:33:17.555,1789338797.5553417,-31
2026-09-13 19:33:17.563,1789338797.563034,-31
2026-09-13 19:33:17.570,1789338797.5707264,-31
2026-09-13 19:33:17.578,1789338797.5784187,-33
2026-09-13 19:33:17.586,1789338797.586111,-33
2026-09-13 19:33:17.593,1789338797.5938032,-31
2026-09-13 19:33:17.601,1789338797.6014955,-31
2026-09-13 19:33:17.609,1789338797.6091878,-26
2026-09-13 19:33:17.616,1789338797.6163187,-24
2026-09-13 19:33:17.624,1789338797.624011,-26
2026-09-13 19:33:17.631,1789338797.6317034,-26
2026-09-13 19:33:17.639,1789338797.6393957,-24
2026-09-13 19:33:17.647,1789338797.647088,-21
2026-09-13 19:33:17.654,1789338797.6547801,-21
2026-09-13 19:33:17.662,1789338797.6624725,-19
2026-09-13 19:33:17.670,1789338797.6701648,-16
2026-09-13 19:33:17.677,1789338797.6778572,-14
2026-09-13 19:33:17.685,1789338797.6855495,-14
2026-09-13 19:33:17.693,1789338797.6932418,-19
2026-09-13 19:33:17.700,1789338797.7009342,-16
2026-09-13 19:33:17.708,1789338797.7086265,-12
2026-09-13 19:33:17.716,1789338797.7163186,-9
2026-09-13 19:33:17.724,1789338797.724011,-9
2026-09-13 19:33:17.731,1789338797.7317033,-9
2026-09-13 19:33:17.739,1789338797.7393956,-7
2026-09-13 19:33:17.747,1789338797.747088,-4
2026-09-13 19:33:17.754,1789338797.7547803,-7
2026-09-13 19:33:17.762,1789338797.7624726,-7
2026-09-13 19:33:17.770,1789338797.770165,-4
2026-09-13 19:33:17.777,1789338797.777857,-4
2026-09-13 19:33:17.785,1789338797.7855494,-7
2026-09-13 19:33:17.793,1789338797.7932417,-4
2026-09-13 19:33:17.800,1789338797.800934,0
2026-09-13 19:33:17.808,1789338797.8086264,0
2026-09-13 19:33:17.816,1789338797.8163188,-2
2026-09-13 19:33:17.824,1789338797.824011,0
2026-09-13 19:33:17.831,1789338797.8317034,0
2026-09-13 19:33:17.839,1789338797.8393955,0
2026-09-13 19:33:17.847,1789338797.8470879,0
2026-09-13 19:33:17.854,1789338797.8547802,0
2026-09-13 19:33:17.862,1789338797.8624725,-4
2026-09-13 19:33:17.870,1789338797.8701649,0
2026-09-13 19:33:17.877,1789338797.8778572,14
2026-09-13 19:33:17.885,1789338797.8855495,29
2026-09-13 19:33:17.893,1789338797.893242,43
2026-09-13 19:33:17.900,1789338797.900934,48
2026-09-13 19:33:17.908,1789338797.9086263,38
2026-09-13 19:33:17.916,1789338797.9163187,31
2026-09-13 19:33:17.924,1789338797.924011,33
2026-09-13 19:33:17.931,1789338797.9317033,26
2026-09-13 19:33:17.939,1789338797.9393957,4
2026-09-13 19:33:17.947,1789338797.947088,-12
2026-09-13 19:33:17.954,1789338797.9547803,-14
2026-09-13 19:33:17.962,1789338797.9624724,-14
2026-09-13 19:33:17.970,1789338797.9701648,-14
2026-09-13 19:33:17.977,1789338797.977857,-9
2026-09-13 19:33:17.985,1789338797.9855494,-9
2026-09-13 19:33:17.993,1789338797.9932418,-12
2026-09-13 19:33:18.000,1789338798.0009341,-12
2026-09-13 19:33:18.008,1789338798.0086265,-12
2026-09-13 19:33:18.016,1789338798.0163188,31
2026-09-13 19:33:18.024,1789338798.024011,206
2026-09-13 19:33:18.031,1789338798.0317032,523
2026-09-13 19:33:18.039,1789338798.0393956,899
2026-09-13 19:33:18.047,1789338798.047088,987
2026-09-13 19:33:18.054,1789338798.0547802,414
2026-09-13 19:33:18.062,1789338798.0624726,-274
2026-09-13 19:33:18.070,1789338798.070165,-283
2026-09-13 19:33:18.077,1789338798.0778573,-33
2026-09-13 19:33:18.085,1789338798.0855494,-87
2026-09-13 19:33:18.093,1789338798.0932417,-147
2026-09-13 19:33:18.100,1789338798.100934,-75
2026-09-13 19:33:18.108,1789338798.1086264,-70
2026-09-13 19:33:18.116,1789338798.1163187,-92
2026-09-13 19:33:18.124,1789338798.124011,-63
2026-09-13 19:33:18.131,1789338798.1317034,-46
2026-09-13 19:33:18.139,1789338798.1393957,-53
2026-09-13 19:33:18.147,1789338798.147088,-46
2026-09-13 19:33:18.154,1789338798.1547801,-33
2026-09-13 19:33:18.162,1789338798.1624725,-29
2026-09-13 19:33:18.170,1789338798.1701648,-19
2026-09-13 19:33:18.177,1789338798.1773257,-12
2026-09-13 19:33:18.185,1789338798.185018,-2
2026-09-13 19:33:18.192,1789338798.1927104,4
2026-09-13 19:33:18.200,1789338798.2004027,16
2026-09-13 19:33:18.208,1789338798.208095,29
2026-09-13 19:33:18.215,1789338798.2157872,38
2026-09-13 19:33:18.223,1789338798.2234795,50
2026-09-13 19:33:18.231,1789338798.2311718,70
2026-09-13 19:33:18.238,1789338798.2388642,87
2026-09-13 19:33:18.246,1789338798.2465565,111
2026-09-13 19:33:18.254,1789338798.2542489,135
2026-09-13 19:33:18.261,1789338798.2619412,152
2026-09-13 19:33:18.269,1789338798.2696335,177
2026-09-13 19:33:18.277,1789338798.2773256,196
2026-09-13 19:33:18.285,1789338798.285018,203
2026-09-13 19:33:18.292,1789338798.2927103,201
2026-09-13 19:33:18.300,1789338798.3004026,196
2026-09-13 19:33:18.308,1789338798.308095,177
2026-09-13 19:33:18.315,1789338798.3157873,138
2026-09-13 19:33:18.323,1789338798.3234797,87
2026-09-13 19:33:18.331,1789338798.331172,38
2026-09-13 19:33:18.338,1789338798.338864,-2
2026-09-13 19:33:18.346,1789338798.3465564,-41
2026-09-13 19:33:18.354,1789338798.3542488,-67
2026-09-13 19:33:18.361,1789338798.361941,-84
2026-09-13 19:33:18.369,1789338798.3696334,-92
2026-09-13 19:33:18.377,1789338798.3773258,-94
2026-09-13 19:33:18.385,1789338798.385018,-92
2026-09-13 19:33:18.392,1789338798.3927104,-87
2026-09-13 19:33:18.400,1789338798.4004025,-84
2026-09-13 19:33:18.408,1789338798.408095,-77
2026-09-13 19:33:18.415,1789338798.4157872,-63
2026-09-13 19:33:18.423,1789338798.4234796,-58
2026-09-13 19:33:18.431,1789338798.431172,-55
2026-09-13 19:33:18.438,1789338798.4388642,-50
2026-09-13 19:33:18.446,1789338798.4465566,-46
2026-09-13 19:33:18.454,1789338798.454249,-46
2026-09-13 19:33:18.461,1789338798.461941,-46
2026-09-13 19:33:18.469,1789338798.4696333,-41
2026-09-13 19:33:18.477,1789338798.4773257,-36
2026-09-13 19:33:18.485,1789338798.485018,-38
2026-09-13 19:33:18.492,1789338798.4927104,-38
2026-09-13 19:33:18.500,1789338798.5004027,-33
2026-09-13 19:33:18.508,1789338798.508095,-33
2026-09-13 19:33:18.515,1789338798.5157874,-36
2026-09-13 19:33:18.523,1789338798.5234795,-36
2026-09-13 19:33:18.531,1789338798.5311718,-38
2026-09-13 19:33:18.538,1789338798.5388641,-38
2026-09-13 19:33:18.546,1789338798.5465565,-36
2026-09-13 19:33:18.554,1789338798.5542488,-33
2026-09-13 19:33:18.561,1789338798.5619411,-31
2026-09-13 19:33:18.569,1789338798.5696335,-29
2026-09-13 19:33:18.577,1789338798.5773258,-29
2026-09-13 19:33:18.585,1789338798.585018,-26
2026-09-13 19:33:18.592,1789338798.5927103,-29
2026-09-13 19:33:18.600,1789338798.6004026,-24
2026-09-13 19:33:18.608,1789338798.608095,-16
2026-09-13 19:33:18.615,1789338798.6157873,-14
2026-09-13 19:33:18.623,1789338798.6234796,-14
2026-09-13 19:33:18.631,1789338798.631172,-16
2026-09-13 19:33:18.638,1789338798.6388643,-16
2026-09-13 19:33:18.646,1789338798.6465564,-14
2026-09-13 19:33:18.654,1789338798.6542487,-14
2026-09-13 19:33:18.661,1789338798.661941,-14
2026-09-13 19:33:18.669,1789338798.6696334,-9
2026-09-13 19:33:18.677,1789338798.6773257,-4
2026-09-13 19:33:18.685,1789338798.685018,-7
2026-09-13 19:33:18.692,1789338798.6927104,-16
2026-09-13 19:33:18.700,1789338798.7004027,-12
2026-09-13 19:33:18.708,1789338798.708095,0
2026-09-13 19:33:18.715,1789338798.7157872,0
2026-09-13 19:33:18.723,1789338798.7234795,-4
2026-09-13 19:33:18.731,1789338798.7311718,-2
2026-09-13 19:33:18.738,1789338798.7383027,0
2026-09-13 19:33:18.745,1789338798.745995,0
2026-09-13 19:33:18.753,1789338798.7536874,-4
2026-09-13 19:33:18.761,1789338798.7613797,-2
2026-09-13 19:33:18.769,1789338798.769072,4
2026-09-13 19:33:18.776,1789338798.7767642,2
2026-09-13 19:33:18.784,1789338798.7844565,0
2026-09-13 19:33:18.792,1789338798.7921488,2
2026-09-13 19:33:18.799,1789338798.7998412,7
2026-09-13 19:33:18.807,1789338798.8075335,7
2026-09-13 19:33:18.815,1789338798.8152258,7
2026-09-13 19:33:18.822,1789338798.8229182,9
2026-09-13 19:33:18.830,1789338798.8306105,7
2026-09-13 19:33:18.838,1789338798.8383026,0
2026-09-13 19:33:18.845,1789338798.845995,2
2026-09-13 19:33:18.853,1789338798.8536873,9
2026-09-13 19:33:18.861,1789338798.8613796,-2
2026-09-13 19:33:18.869,1789338798.869072,2
2026-09-13 19:33:18.876,1789338798.8767643,26
2026-09-13 19:33:18.884,1789338798.8844566,41
2026-09-13 19:33:18.892,1789338798.892149,53
2026-09-13 19:33:18.899,1789338798.899841,67
2026-09-13 19:33:18.907,1789338798.9075334,63
2026-09-13 19:33:18.915,1789338798.9152257,46
2026-09-13 19:33:18.922,1789338798.922918,46
2026-09-13 19:33:18.930,1789338798.9306104,33
2026-09-13 19:33:18.938,1789338798.9383028,7
2026-09-13 19:33:18.945,1789338798.945995,-4
2026-09-13 19:33:18.953,1789338798.9536874,0
2026-09-13 19:33:18.961,1789338798.9613795,-4
2026-09-13 19:33:18.969,1789338798.9690719,-2
2026-09-13 19:33:18.976,1789338798.9767642,2
2026-09-13 19:33:18.984,1789338798.9844565,2
2026-09-13 19:33:18.992,1789338798.9921489,0
2026-09-13 19:33:18.999,1789338798.9998412,0
2026-09-13 19:33:19.007,1789338799.0075336,0
2026-09-13 19:33:19.015,1789338799.015226,63
2026-09-13 19:33:19.022,1789338799.022918,254
2026-09-13 19:33:19.030,1789338799.0306103,567
2026-09-13 19:33:19.038,1789338799.0383027,936
2026-09-13 19:33:19.045,1789338799.045995,987
2026-09-13 19:33:19.053,1789338799.0536873,351
2026-09-13 19:33:19.061,1789338799.0613797,-293
2026-09-13 19:33:19.069,1789338799.069072,-227
2026-09-13 19:33:19.076,1789338799.0767643,-12
2026-09-13 19:33:19.084,1789338799.0844564,-94
2026-09-13 19:33:19.092,1789338799.0921488,-130
2026-09-13 19:33:19.099,1789338799.099841,-60
2026-09-13 19:33:19.107,1789338799.1075335,-67
2026-09-13 19:33:19.115,1789338799.1152258,-77
2026-09-13 19:33:19.122,1789338799.1229181,-48
2026-09-13 19:33:19.130,1789338799.1306105,-43
2026-09-13 19:33:19.138,1789338799.1383028,-48
2026-09-13 19:33:19.145,1789338799.145995,-33
2026-09-13 19:33:19.153,1789338799.1536872,-21
2026-09-13 19:33:19.161,1789338799.1613796,-16
2026-09-13 19:33:19.169,1789338799.169072,-4
2026-09-13 19:33:19.176,1789338799.1767642,4
2026-09-13 19:33:19.184,1789338799.1844566,9
2026-09-13 19:33:19.192,1789338799.192149,16
2026-09-13 19:33:19.199,1789338799.1998413,26
2026-09-13 19:33:19.207,1789338799.2075334,38
2026-09-13 19:33:19.215,1789338799.2152257,50
2026-09-13 19:33:19.222,1789338799.222918,67
2026-09-13 19:33:19.230,1789338799.2306104,87
2026-09-13 19:33:19.238,1789338799.2383027,101
2026-09-13 19:33:19.245,1789338799.245995,123
2026-09-13 19:33:19.253,1789338799.2536874,143
2026-09-13 19:33:19.261,1789338799.2613797,164
2026-09-13 19:33:19.269,1789338799.269072,191
2026-09-13 19:33:19.276,1789338799.2767642,210
2026-09-13 19:33:19.284,1789338799.2844565,220
2026-09-13 19:33:19.292,1789338799.2921488,223
2026-09-13 19:33:19.299,1789338799.29931,210
2026-09-13 19:33:19.307,1789338799.3070023,184
2026-09-13 19:33:19.314,1789338799.3146946,150
2026-09-13 19:33:19.322,1789338799.322387,104
2026-09-13 19:33:19.330,1789338799.3300793,50
2026-09-13 19:33:19.337,1789338799.3377714,4
2026-09-13 19:33:19.345,1789338799.3454638,-29
2026-09-13 19:33:19.353,1789338799.353156,-58
2026-09-13 19:33:19.360,1789338799.3608484,-75
2026-09-13 19:33:19.368,1789338799.3685408,-80
2026-09-13 19:33:19.376,1789338799.376233,-82
2026-09-13 19:33:19.383,1789338799.3839254,-82
2026-09-13 19:33:19.391,1789338799.3916178,-72
2026-09-13 19:33:19.399,1789338799.3993099,-63
2026-09-13 19:33:19.407,1789338799.4070022,-63
2026-09-13 19:33:19.414,1789338799.4146945,-58
2026-09-13 19:33:19.422,1789338799.422387,-41
2026-09-13 19:33:19.430,1789338799.4300792,-33
2026-09-13 19:33:19.437,1789338799.4377716,-36
2026-09-13 19:33:19.445,1789338799.445464,-31
2026-09-13 19:33:19.453,1789338799.4531562,-21
2026-09-13 19:33:19.460,1789338799.4608483,-21
2026-09-13 19:33:19.468,1789338799.4685407,-24
2026-09-13 19:33:19.476,1789338799.476233,-21
2026-09-13 19:33:19.483,1789338799.4839253,-16
2026-09-13 19:33:19.491,1789338799.4916177,-19
2026-09-13 19:33:19.499,1789338799.49931,-16
2026-09-13 19:33:19.507,1789338799.5070024,-14
2026-09-13 19:33:19.514,1789338799.5146947,-12
2026-09-13 19:33:19.522,1789338799.5223868,-12
2026-09-13 19:33:19.530,1789338799.5300791,-9
2026-09-13 19:33:19.537,1789338799.5377715,-7
2026-09-13 19:33:19.545,1789338799.5454638,-7
2026-09-13 19:33:19.553,1789338799.5531561,-9
2026-09-13 19:33:19.560,1789338799.5608485,-7
2026-09-13 19:33:19.568,1789338799.5685408,-4
2026-09-13 19:33:19.576,1789338799.5762331,-4
2026-09-13 19:33:19.583,1789338799.5839252,-2
2026-09-13 19:33:19.591,1789338799.5916176,2
2026-09-13 19:33:19.599,1789338799.59931,2
2026-09-13 19:33:19.607,1789338799.6070023,2
2026-09-13 19:33:19.614,1789338799.6146946,4
2026-09-13 19:33:19.622,1789338799.622387,7
2026-09-13 19:33:19.630,1789338799.6300793,7
2026-09-13 19:33:19.637,1789338799.6377716,9
2026-09-13 19:33:19.645,1789338799.6454637,12
2026-09-13 19:33:19.653,1789338799.653156,16
2026-09-13 19:33:19.660,1789338799.6608484,16
2026-09-13 19:33:19.668,1789338799.6685407,14
2026-09-13 19:33:19.676,1789338799.676233,16
2026-09-13 19:33:19.683,1789338799.6839254,21
2026-09-13 19:33:19.691,1789338799.6916177,19
2026-09-13 19:33:19.699,1789338799.69931,19
2026-09-13 19:33:19.707,1789338799.7070022,21
2026-09-13 19:33:19.714,1789338799.7146945,21
2026-09-13 19:33:19.722,1789338799.7223868,19
2026-09-13 19:33:19.730,1789338799.7300792,24
2026-09-13 19:33:19.737,1789338799.7377715,29
2026-09-13 19:33:19.745,1789338799.7454638,29
2026-09-13 19:33:19.753,1789338799.7531562,26
2026-09-13 19:33:19.760,1789338799.7608485,26
2026-09-13 19:33:19.768,1789338799.7685406,29
2026-09-13 19:33:19.776,1789338799.776233,29
2026-09-13 19:33:19.783,1789338799.7839253,29
2026-09-13 19:33:19.791,1789338799.7916176,26
2026-09-13 19:33:19.799,1789338799.79931,24
2026-09-13 19:33:19.807,1789338799.8070023,26
2026-09-13 19:33:19.814,1789338799.8146946,26
2026-09-13 19:33:19.822,1789338799.822387,24
2026-09-13 19:33:19.830,1789338799.8300793,26
2026-09-13 19:33:19.837,1789338799.8377714,24
2026-09-13 19:33:19.845,1789338799.8454638,16
2026-09-13 19:33:19.853,1789338799.853156,21
2026-09-13 19:33:19.860,1789338799.8602867,43
2026-09-13 19:33:19.867,1789338799.867979,58
2026-09-13 19:33:19.875,1789338799.8756714,75
2026-09-13 19:33:19.883,1789338799.8833637,92
2026-09-13 19:33:19.891,1789338799.891056,80
2026-09-13 19:33:19.898,1789338799.8987482,63
2026-09-13 19:33:19.906,1789338799.9064405,63
2026-09-13 19:33:19.914,1789338799.9141328,55
2026-09-13 19:33:19.921,1789338799.9218252,31
2026-09-13 19:33:19.929,1789338799.9295175,12
2026-09-13 19:33:19.937,1789338799.9372098,14
2026-09-13 19:33:19.944,1789338799.9449022,16
2026-09-13 19:33:19.952,1789338799.9525945,16
2026-09-13 19:33:19.960,1789338799.9602866,16
2026-09-13 19:33:19.967,1789338799.967979,21
2026-09-13 19:33:19.975,1789338799.9756713,21
2026-09-13 19:33:19.983,1789338799.9833636,16
2026-09-13 19:33:19.991,1789338799.991056,12
2026-09-13 19:33:19.998,1789338799.9987483,70
2026-09-13 19:33:20.006,1789338800.0064406,249
2026-09-13 19:33:20.014,1789338800.014133,545
2026-09-13 19:33:20.021,1789338800.021825,906
2026-09-13 19:33:20.029,1789338800.0295174,987
2026-09-13 19:33:20.037,1789338800.0372097,380
2026-09-13 19:33:20.044,1789338800.044902,-293
2026-09-13 19:33:20.052,1789338800.0525944,-242
2026-09-13 19:33:20.060,1789338800.0602868,4
2026-09-13 19:33:20.067,1789338800.067979,-65
2026-09-13 19:33:20.075,1789338800.0756714,-106
2026-09-13 19:33:20.083,1789338800.0833635,-29
2026-09-13 19:33:20.091,1789338800.0910559,-33
2026-09-13 19:33:20.098,1789338800.0987482,-55
2026-09-13 19:33:20.106,1789338800.1064405,-29
2026-09-13 19:33:20.114,1789338800.114133,-14
2026-09-13 19:33:20.121,1789338800.1218252,-16
2026-09-13 19:33:20.129,1789338800.1295176,-7
2026-09-13 19:33:20.137,1789338800.13721,4
2026-09-13 19:33:20.144,1789338800.144902,12
2026-09-13 19:33:20.152,1789338800.1525943,24
2026-09-13 19:33:20.160,1789338800.1602867,38
2026-09-13 19:33:20.167,1789338800.167979,43
2026-09-13 19:33:20.175,1789338800.1756713,48
2026-09-13 19:33:20.183,1789338800.1833637,60
2026-09-13 19:33:20.191,1789338800.191056,75
2026-09-13 19:33:20.198,1789338800.1987484,87
2026-09-13 19:33:20.206,1789338800.2064404,101
2026-09-13 19:33:20.214,1789338800.2141328,126
2026-09-13 19:33:20.221,1789338800.2218251,147
2026-09-13 19:33:20.229,1789338800.2295175,164
2026-09-13 19:33:20.237,1789338800.2372098,184
2026-09-13 19:33:20.244,1789338800.2449021,215
2026-09-13 19:33:20.252,1789338800.2525945,240
2026-09-13 19:33:20.260,1789338800.2602868,257
2026-09-13 19:33:20.267,1789338800.267979,274
2026-09-13 19:33:20.275,1789338800.2756712,271
2026-09-13 19:33:20.283,1789338800.2833636,252
2026-09-13 19:33:20.291,1789338800.291056,230
2026-09-13 19:33:20.298,1789338800.2987483,196
2026-09-13 19:33:20.306,1789338800.3064406,140
2026-09-13 19:33:20.314,1789338800.314133,87
2026-09-13 19:33:20.321,1789338800.3218253,38
2026-09-13 19:33:20.329,1789338800.3295174,-9
2026-09-13 19:33:20.337,1789338800.3372097,-48
2026-09-13 19:33:20.344,1789338800.344902,-60
2026-09-13 19:33:20.352,1789338800.3525944,-63
2026-09-13 19:33:20.360,1789338800.3602867,-67
2026-09-13 19:33:20.367,1789338800.367979,-72
2026-09-13 19:33:20.375,1789338800.3756714,-60
2026-09-13 19:33:20.383,1789338800.3833637,-43
2026-09-13 19:33:20.391,1789338800.391056,-33
2026-09-13 19:33:20.398,1789338800.3987482,-31
2026-09-13 19:33:20.406,1789338800.4064405,-26
2026-09-13 19:33:20.414,1789338800.4141328,-19
2026-09-13 19:33:20.421,1789338800.4212635,-12
2026-09-13 19:33:20.428,1789338800.4289558,-12
2026-09-13 19:33:20.436,1789338800.4366481,-14
2026-09-13 19:33:20.444,1789338800.4443405,-7
2026-09-13 19:33:20.452,1789338800.4520328,-2
2026-09-13 19:33:20.459,1789338800.459725,0
2026-09-13 19:33:20.467,1789338800.4674172,4
2026-09-13 19:33:20.475,1789338800.4751096,4
2026-09-13 19:33:20.482,1789338800.482802,4
2026-09-13 19:33:20.490,1789338800.4904943,4
2026-09-13 19:33:20.498,1789338800.4981866,9
2026-09-13 19:33:20.505,1789338800.505879,9
2026-09-13 19:33:20.513,1789338800.5135713,12
2026-09-13 19:33:20.521,1789338800.5212634,14
2026-09-13 19:33:20.528,1789338800.5289557,16
2026-09-13 19:33:20.536,1789338800.536648,16
2026-09-13 19:33:20.544,1789338800.5443404,19
2026-09-13 19:33:20.552,1789338800.5520327,19
2026-09-13 19:33:20.559,1789338800.559725,7
2026-09-13 19:33:20.567,1789338800.5674174,9
2026-09-13 19:33:20.575,1789338800.5751097,21
2026-09-13 19:33:20.582,1789338800.5828018,24
2026-09-13 19:33:20.590,1789338800.5904942,21
2026-09-13 19:33:20.598,1789338800.5981865,24
2026-09-13 19:33:20.605,1789338800.6058788,33
2026-09-13 19:33:20.613,1789338800.6135712,36
2026-09-13 19:33:20.621,1789338800.6212635,26
2026-09-13 19:33:20.628,1789338800.6289558,24
2026-09-13 19:33:20.636,1789338800.6366482,36
2026-09-13 19:33:20.644,1789338800.6443403,43
2026-09-13 19:33:20.652,1789338800.6520326,43
2026-09-13 19:33:20.659,1789338800.659725,38
2026-09-13 19:33:20.667,1789338800.6674173,36
2026-09-13 19:33:20.675,1789338800.6751096,38
2026-09-13 19:33:20.682,1789338800.682802,38
2026-09-13 19:33:20.690,1789338800.6904943,38
2026-09-13 19:33:20.698,1789338800.6981866,43
2026-09-13 19:33:20.705,1789338800.7058787,46
2026-09-13 19:33:20.713,1789338800.713571,38
2026-09-13 19:33:20.721,1789338800.7212634,41
2026-09-13 19:33:20.728,1789338800.7289557,46
2026-09-13 19:33:20.736,1789338800.736648,46
2026-09-13 19:33:20.744,1789338800.7443404,50
2026-09-13 19:33:20.752,1789338800.7520328,65
2026-09-13 19:33:20.759,1789338800.759725,80
2026-09-13 19:33:20.767,1789338800.7674172,99
2026-09-13 19:33:20.775,1789338800.7751095,106
2026-09-13 19:33:20.782,1789338800.7828019,89
2026-09-13 19:33:20.790,1789338800.7904942,77
2026-09-13 19:33:20.798,1789338800.7981865,72
2026-09-13 19:33:20.805,1789338800.8058789,48
2026-09-13 19:33:20.813,1789338800.8135712,31
2026-09-13 19:33:20.821,1789338800.8212636,33
2026-09-13 19:33:20.828,1789338800.8289557,36
2026-09-13 19:33:20.836,1789338800.836648,29
2026-09-13 19:33:20.844,1789338800.8443403,29
2026-09-13 19:33:20.852,1789338800.8520327,33
2026-09-13 19:33:20.859,1789338800.859725,38
2026-09-13 19:33:20.867,1789338800.8674173,36
2026-09-13 19:33:20.875,1789338800.8751097,31
2026-09-13 19:33:20.882,1789338800.882802,67
2026-09-13 19:33:20.890,1789338800.890494,215
2026-09-13 19:33:20.898,1789338800.8981864,521
2026-09-13 19:33:20.905,1789338800.9058788,919
2026-09-13 19:33:20.913,1789338800.9135711,1091
2026-09-13 19:33:20.921,1789338800.9212635,555
2026-09-13 19:33:20.928,1789338800.9289558,-264
2026-09-13 19:33:20.936,1789338800.9366481,-354
2026-09-13 19:33:20.944,1789338800.9443405,-7
2026-09-13 19:33:20.952,1789338800.9520328,-14
2026-09-13 19:33:20.959,1789338800.959725,-104
2026-09-13 19:33:20.967,1789338800.9674172,-16
2026-09-13 19:33:20.975,1789338800.9751096,2
2026-09-13 19:33:20.982,1789338800.982271,-36
2026-09-13 19:33:20.989,1789338800.9899633,-7
2026-09-13 19:33:20.997,1789338800.9976556,16
2026-09-13 19:33:21.005,1789338801.005348,9
2026-09-13 19:33:21.013,1789338801.0130403,31
2026-09-13 19:33:21.020,1789338801.0207324,50
2026-09-13 19:33:21.028,1789338801.0284247,46
2026-09-13 19:33:21.036,1789338801.036117,55
2026-09-13 19:33:21.043,1789338801.0438094,75
2026-09-13 19:33:21.051,1789338801.0515018,75
2026-09-13 19:33:21.059,1789338801.059194,72
2026-09-13 19:33:21.066,1789338801.0668864,84
2026-09-13 19:33:21.074,1789338801.0745788,109
2026-09-13 19:33:21.082,1789338801.0822709,126
2026-09-13 19:33:21.089,1789338801.0899632,135
2026-09-13 19:33:21.097,1789338801.0976555,164
2026-09-13 19:33:21.105,1789338801.1053479,194
2026-09-13 19:33:21.113,1789338801.1130402,213
2026-09-13 19:33:21.120,1789338801.1207325,242
2026-09-13 19:33:21.128,1789338801.128425,278
2026-09-13 19:33:21.136,1789338801.1361172,295
2026-09-13 19:33:21.143,1789338801.1438093,317
2026-09-13 19:33:21.151,1789338801.1515017,339
2026-09-13 19:33:21.159,1789338801.159194,344
2026-09-13 19:33:21.166,1789338801.1668863,320
2026-09-13 19:33:21.174,1789338801.1745787,281
2026-09-13 19:33:21.182,1789338801.182271,232
2026-09-13 19:33:21.189,1789338801.1899633,164
2026-09-13 19:33:21.197,1789338801.1976557,84
2026-09-13 19:33:21.205,1789338801.2053478,16
2026-09-13 19:33:21.213,1789338801.21304,-21
2026-09-13 19:33:21.220,1789338801.2207325,-48
2026-09-13 19:33:21.228,1789338801.2284248,-72
2026-09-13 19:33:21.236,1789338801.2361171,-87
2026-09-13 19:33:21.243,1789338801.2438095,-92
2026-09-13 19:33:21.251,1789338801.2515018,-87
2026-09-13 19:33:21.259,1789338801.2591941,-84
2026-09-13 19:33:21.266,1789338801.2668862,-87
2026-09-13 19:33:21.274,1789338801.2745786,-80
2026-09-13 19:33:21.282,1789338801.282271,-67
2026-09-13 19:33:21.289,1789338801.2899632,-53
2026-09-13 19:33:21.297,1789338801.2976556,-38
2026-09-13 19:33:21.305,1789338801.305348,-41
2026-09-13 19:33:21.313,1789338801.3130403,-46
2026-09-13 19:33:21.320,1789338801.3207326,-29
2026-09-13 19:33:21.328,1789338801.3284247,-19
2026-09-13 19:33:21.336,1789338801.336117,-24
2026-09-13 19:33:21.343,1789338801.3438094,-19
2026-09-13 19:33:21.351,1789338801.3515017,-14
2026-09-13 19:33:21.359,1789338801.359194,-21
2026-09-13 19:33:21.366,1789338801.3668864,-19
2026-09-13 19:33:21.374,1789338801.3745787,-7
2026-09-13 19:33:21.382,1789338801.382271,-9
2026-09-13 19:33:21.389,1789338801.3899632,-16
2026-09-13 19:33:21.397,1789338801.3976555,-7
2026-09-13 19:33:21.405,1789338801.4053478,4
2026-09-13 19:33:21.413,1789338801.4130402,-4
2026-09-13 19:33:21.420,1789338801.4207325,-14
2026-09-13 19:33:21.428,1789338801.4284248,-4
2026-09-13 19:33:21.436,1789338801.4361172,2
2026-09-13 19:33:21.443,1789338801.4438095,4
2026-09-13 19:33:21.451,1789338801.4515016,2
2026-09-13 19:33:21.459,1789338801.459194,-4
2026-09-13 19:33:21.466,1789338801.4668863,7
2026-09-13 19:33:21.474,1789338801.4745786,26
2026-09-13 19:33:21.482,1789338801.482271,19
2026-09-13 19:33:21.489,1789338801.4899633,2
2026-09-13 19:33:21.497,1789338801.4976556,9
2026-09-13 19:33:21.505,1789338801.505348,21
2026-09-13 19:33:21.513,1789338801.5130403,26
2026-09-13 19:33:21.520,1789338801.5207324,36
2026-09-13 19:33:21.528,1789338801.5284247,38
2026-09-13 19:33:21.536,1789338801.536117,36
2026-09-13 19:33:21.543,1789338801.5432475,60
2026-09-13 19:33:21.550,1789338801.5509398,80
2026-09-13 19:33:21.558,1789338801.5586321,72
2026-09-13 19:33:21.566,1789338801.5663245,72
2026-09-13 19:33:21.574,1789338801.5740168,75
2026-09-13 19:33:21.581,1789338801.581709,53
2026-09-13 19:33:21.589,1789338801.5894012,36
2026-09-13 19:33:21.597,1789338801.5970936,33
2026-09-13 19:33:21.604,1789338801.604786,21
2026-09-13 19:33:21.612,1789338801.6124783,9
2026-09-13 19:33:21.620,1789338801.6201706,21
2026-09-13 19:33:21.627,1789338801.627863,38
2026-09-13 19:33:21.635,1789338801.6355553,26
2026-09-13 19:33:21.643,1789338801.6432474,19
2026-09-13 19:33:21.650,1789338801.6509397,36
2026-09-13 19:33:21.658,1789338801.658632,31
2026-09-13 19:33:21.666,1789338801.6663244,31
2026-09-13 19:33:21.674,1789338801.6740167,164
2026-09-13 19:33:21.681,1789338801.681709,487
2026-09-13 19:33:21.689,1789338801.6894014,875
2026-09-13 19:33:21.697,1789338801.6970937,1057
2026-09-13 19:33:21.704,1789338801.7047858,623
2026-09-13 19:33:21.712,1789338801.7124782,-186
2026-09-13 19:33:21.720,1789338801.7201705,-388
2026-09-13 19:33:21.727,1789338801.7278628,-58
2026-09-13 19:33:21.735,1789338801.7355552,-4
2026-09-13 19:33:21.743,1789338801.7432475,-99
2026-09-13 19:33:21.750,1789338801.7509398,-36
2026-09-13 19:33:21.758,1789338801.7586322,-2
2026-09-13 19:33:21.766,1789338801.7663243,-29
2026-09-13 19:33:21.774,1789338801.7740166,-12
2026-09-13 19:33:21.781,1789338801.781709,9
2026-09-13 19:33:21.789,1789338801.7894013,4
2026-09-13 19:33:21.797,1789338801.7970936,16
2026-09-13 19:33:21.804,1789338801.804786,43
2026-09-13 19:33:21.812,1789338801.8124783,41
2026-09-13 19:33:21.820,1789338801.8201706,29
2026-09-13 19:33:21.827,1789338801.8278627,48
2026-09-13 19:33:21.835,1789338801.835555,80
2026-09-13 19:33:21.843,1789338801.8432474,82
2026-09-13 19:33:21.850,1789338801.8509398,70
2026-09-13 19:33:21.858,1789338801.858632,80
2026-09-13 19:33:21.866,1789338801.8663244,113
2026-09-13 19:33:21.874,1789338801.8740168,135
2026-09-13 19:33:21.881,1789338801.881709,143
2026-09-13 19:33:21.889,1789338801.8894012,160
2026-09-13 19:33:21.897,1789338801.8970935,191
2026-09-13 19:33:21.904,1789338801.9047859,230
2026-09-13 19:33:21.912,1789338801.9124782,264
2026-09-13 19:33:21.920,1789338801.9201705,295
2026-09-13 19:33:21.927,1789338801.927863,320
2026-09-13 19:33:21.935,1789338801.9355552,324
2026-09-13 19:33:21.943,1789338801.9432476,320
2026-09-13 19:33:21.950,1789338801.9509397,315
2026-09-13 19:33:21.958,1789338801.958632,276
2026-09-13 19:33:21.966,1789338801.9663243,210
2026-09-13 19:33:21.974,1789338801.9740167,145
2026-09-13 19:33:21.981,1789338801.981709,77
2026-09-13 19:33:21.989,1789338801.9894013,4
2026-09-13 19:33:21.997,1789338801.9970937,-41
2026-09-13 19:33:22.004,1789338802.004786,-58
2026-09-13 19:33:22.012,1789338802.012478,-87
2026-09-13 19:33:22.020,1789338802.0201705,-109
2026-09-13 19:33:22.027,1789338802.0278628,-104
2026-09-13 19:33:22.035,1789338802.0355551,-89
2026-09-13 19:33:22.043,1789338802.0432475,-87
2026-09-13 19:33:22.050,1789338802.0509398,-92
2026-09-13 19:33:22.058,1789338802.0586321,-75
2026-09-13 19:33:22.066,1789338802.0663245,-53
2026-09-13 19:33:22.074,1789338802.0740168,-65
2026-09-13 19:33:22.081,1789338802.081709,-72
2026-09-13 19:33:22.089,1789338802.0894012,-41
2026-09-13 19:33:22.097,1789338802.0970936,-19
2026-09-13 19:33:22.104,1789338802.1042244,-26
2026-09-13 19:33:22.111,1789338802.1119168,-36
2026-09-13 19:33:22.119,1789338802.119609,-29
2026-09-13 19:33:22.127,1789338802.1273015,-14
2026-09-13 19:33:22.134,1789338802.1349938,-14
2026-09-13 19:33:22.142,1789338802.142686,-12
2026-09-13 19:33:22.150,1789338802.1503782,4
2026-09-13 19:33:22.158,1789338802.1580706,0
2026-09-13 19:33:22.165,1789338802.165763,-21
2026-09-13 19:33:22.173,1789338802.1734552,-19
2026-09-13 19:33:22.181,1789338802.1811476,-4
2026-09-13 19:33:22.188,1789338802.18884,-7
2026-09-13 19:33:22.196,1789338802.1965322,-7
2026-09-13 19:33:22.204,1789338802.2042243,2
2026-09-13 19:33:22.211,1789338802.2119167,2
2026-09-13 19:33:22.219,1789338802.219609,-2
2026-09-13 19:33:22.227,1789338802.2273014,2
2026-09-13 19:33:22.234,1789338802.2349937,4
2026-09-13 19:33:22.242,1789338802.242686,7
2026-09-13 19:33:22.250,1789338802.2503784,4
2026-09-13 19:33:22.258,1789338802.2580707,0
2026-09-13 19:33:22.265,1789338802.2657628,9
2026-09-13 19:33:22.273,1789338802.2734551,24
2026-09-13 19:33:22.281,1789338802.2811475,26
2026-09-13 19:33:22.288,1789338802.2888398,43
2026-09-13 19:33:22.296,1789338802.2965322,72
2026-09-13 19:33:22.304,1789338802.3042245,63
2026-09-13 19:33:22.311,1789338802.3119168,46
2026-09-13 19:33:22.319,1789338802.3196092,53
2026-09-13 19:33:22.327,1789338802.3273013,50
2026-09-13 19:33:22.334,1789338802.3349936,19
2026-09-13 19:33:22.342,1789338802.342686,0
2026-09-13 19:33:22.350,1789338802.3503783,12
2026-09-13 19:33:22.358,1789338802.3580706,14
2026-09-13 19:33:22.365,1789338802.365763,4
2026-09-13 19:33:22.373,1789338802.3734553,2
2026-09-13 19:33:22.381,1789338802.3811476,4
2026-09-13 19:33:22.388,1789338802.3888397,9
2026-09-13 19:33:22.396,1789338802.396532,14
2026-09-13 19:33:22.404,1789338802.4042244,4
2026-09-13 19:33:22.411,1789338802.4119167,29
2026-09-13 19:33:22.419,1789338802.419609,186
2026-09-13 19:33:22.427,1789338802.4273014,521
2026-09-13 19:33:22.434,1789338802.4349937,916
2026-09-13 19:33:22.442,1789338802.442686,1025
2026-09-13 19:33:22.450,1789338802.4503782,480
2026-09-13 19:33:22.458,1789338802.4580705,-261
2026-09-13 19:33:22.465,1789338802.4657629,-332
2026-09-13 19:33:22.473,1789338802.4734552,-29
2026-09-13 19:33:22.481,1789338802.4811475,-38
2026-09-13 19:33:22.488,1789338802.4888399,-118
2026-09-13 19:33:22.496,1789338802.4965322,-50
2026-09-13 19:33:22.504,1789338802.5042245,-41
2026-09-13 19:33:22.511,1789338802.5119166,-60
2026-09-13 19:33:22.519,1789338802.519609,-31
2026-09-13 19:33:22.527,1789338802.5273013,-24
2026-09-13 19:33:22.534,1789338802.5349936,-36
2026-09-13 19:33:22.542,1789338802.542686,-14
2026-09-13 19:33:22.550,1789338802.5503783,0
2026-09-13 19:33:22.558,1789338802.5580707,0
2026-09-13 19:33:22.565,1789338802.565763,12
2026-09-13 19:33:22.573,1789338802.573455,24
2026-09-13 19:33:22.581,1789338802.5811474,24
2026-09-13 19:33:22.588,1789338802.5888398,33
2026-09-13 19:33:22.596,1789338802.596532,48
2026-09-13 19:33:22.604,1789338802.6042244,58
2026-09-13 19:33:22.611,1789338802.6119168,70
2026-09-13 19:33:22.619,1789338802.619609,89
2026-09-13 19:33:22.627,1789338802.6273015,113
2026-09-13 19:33:22.634,1789338802.6349938,135
2026-09-13 19:33:22.642,1789338802.642686,152
2026-09-13 19:33:22.650,1789338802.6503782,181
2026-09-13 19:33:22.658,1789338802.6580706,215
2026-09-13 19:33:22.665,1789338802.6652317,240
2026-09-13 19:33:22.672,1789338802.672924,261
2026-09-13 19:33:22.680,1789338802.6806164,276
2026-09-13 19:33:22.688,1789338802.6883087,271
2026-09-13 19:33:22.696,1789338802.696001,249
2026-09-13 19:33:22.703,1789338802.7036932,206
2026-09-13 19:33:22.711,1789338802.7113855,147
2026-09-13 19:33:22.719,1789338802.7190778,89
2026-09-13 19:33:22.726,1789338802.7267702,29
2026-09-13 19:33:22.734,1789338802.7344625,-29
2026-09-13 19:33:22.742,1789338802.7421548,-67
2026-09-13 19:33:22.749,1789338802.7498472,-92
2026-09-13 19:33:22.757,1789338802.7575395,-104
2026-09-13 19:33:22.765,1789338802.7652316,-101
2026-09-13 19:33:22.772,1789338802.772924,-101
2026-09-13 19:33:22.780,1789338802.7806163,-106
2026-09-13 19:33:22.788,1789338802.7883086,-104
2026-09-13 19:33:22.796,1789338802.796001,-94
2026-09-13 19:33:22.803,1789338802.8036933,-87
2026-09-13 19:33:22.811,1789338802.8113856,-80
2026-09-13 19:33:22.819,1789338802.819078,-72
2026-09-13 19:33:22.826,1789338802.82677,-60
2026-09-13 19:33:22.834,1789338802.8344624,-58
2026-09-13 19:33:22.842,1789338802.8421547,-58
2026-09-13 19:33:22.849,1789338802.849847,-46
2026-09-13 19:33:22.857,1789338802.8575394,-33
2026-09-13 19:33:22.865,1789338802.8652318,-31
2026-09-13 19:33:22.872,1789338802.872924,-31
2026-09-13 19:33:22.880,1789338802.8806164,-31
2026-09-13 19:33:22.888,1789338802.8883085,-31
2026-09-13 19:33:22.896,1789338802.8960009,-29
2026-09-13 19:33:22.903,1789338802.9036932,-29
2026-09-13 19:33:22.911,1789338802.9113855,-26
2026-09-13 19:33:22.919,1789338802.9190779,-24
2026-09-13 19:33:22.926,1789338802.9267702,-21
2026-09-13 19:33:22.934,1789338802.9344625,-26
2026-09-13 19:33:22.942,1789338802.942155,-26
2026-09-13 19:33:22.949,1789338802.949847,-19
2026-09-13 19:33:22.957,1789338802.9575393,-14
2026-09-13 19:33:22.965,1789338802.9652317,-16
2026-09-13 19:33:22.972,1789338802.972924,-16
2026-09-13 19:33:22.980,1789338802.9806163,-16
2026-09-13 19:33:22.988,1789338802.9883087,-12
2026-09-13 19:33:22.996,1789338802.996001,-4
2026-09-13 19:33:23.003,1789338803.0036933,-7
2026-09-13 19:33:23.011,1789338803.0113854,-12
2026-09-13 19:33:23.019,1789338803.0190778,-7
2026-09-13 19:33:23.026,1789338803.02677,-4
2026-09-13 19:33:23.034,1789338803.0344625,-4
2026-09-13 19:33:23.042,1789338803.0421548,7
2026-09-13 19:33:23.049,1789338803.0498471,19
2026-09-13 19:33:23.057,1789338803.0575395,31
2026-09-13 19:33:23.065,1789338803.0652318,48
2026-09-13 19:33:23.072,1789338803.072924,46
2026-09-13 19:33:23.080,1789338803.0806162,31
2026-09-13 19:33:23.088,1789338803.0883086,38
2026-09-13 19:33:23.096,1789338803.096001,38
2026-09-13 19:33:23.103,1789338803.1036932,7
2026-09-13 19:33:23.111,1789338803.1113856,-9
2026-09-13 19:33:23.119,1789338803.119078,-4
2026-09-13 19:33:23.126,1789338803.1267703,-7
2026-09-13 19:33:23.134,1789338803.1344624,-7
2026-09-13 19:33:23.142,1789338803.1421547,0
2026-09-13 19:33:23.149,1789338803.149847,0
2026-09-13 19:33:23.157,1789338803.1575394,0
2026-09-13 19:33:23.165,1789338803.1652317,0
2026-09-13 19:33:23.172,1789338803.172924,-2
2026-09-13 19:33:23.180,1789338803.1806164,14
2026-09-13 19:33:23.188,1789338803.1883087,128
2026-09-13 19:33:23.196,1789338803.196001,400
2026-09-13 19:33:23.203,1789338803.2036932,759
2026-09-13 19:33:23.211,1789338803.2113855,955
2026-09-13 19:33:23.219,1789338803.2190778,611
2026-09-13 19:33:23.226,1789338803.2262084,-99
2026-09-13 19:33:23.233,1789338803.2339008,-337
2026-09-13 19:33:23.241,1789338803.2415931,-87
2026-09-13 19:33:23.249,1789338803.2492855,-24
2026-09-13 19:33:23.256,1789338803.2569778,-111
2026-09-13 19:33:23.264,1789338803.26467,-72
2026-09-13 19:33:23.272,1789338803.2723622,-38
2026-09-13 19:33:23.280,1789338803.2800546,-60
2026-09-13 19:33:23.287,1789338803.287747,-46
2026-09-13 19:33:23.295,1789338803.2954392,-24
2026-09-13 19:33:23.303,1789338803.3031316,-29
2026-09-13 19:33:23.310,1789338803.310824,-24
2026-09-13 19:33:23.318,1789338803.3185163,-9
2026-09-13 19:33:23.326,1789338803.3262084,-2
2026-09-13 19:33:23.333,1789338803.3339007,2
2026-09-13 19:33:23.341,1789338803.341593,14
2026-09-13 19:33:23.349,1789338803.3492854,21
2026-09-13 19:33:23.356,1789338803.3569777,29
2026-09-13 19:33:23.364,1789338803.36467,36
2026-09-13 19:33:23.372,1789338803.3723624,41
2026-09-13 19:33:23.380,1789338803.3800547,53
2026-09-13 19:33:23.387,1789338803.3877468,72
2026-09-13 19:33:23.395,1789338803.3954391,87
2026-09-13 19:33:23.403,1789338803.4031315,104
2026-09-13 19:33:23.410,1789338803.4108238,126
2026-09-13 19:33:23.418,1789338803.4185162,150
2026-09-13 19:33:23.426,1789338803.4262085,177
2026-09-13 19:33:23.433,1789338803.4339008,198
2026-09-13 19:33:23.441,1789338803.4415932,218
2026-09-13 19:33:23.449,1789338803.4492853,227
2026-09-13 19:33:23.456,1789338803.4569776,225
2026-09-13 19:33:23.464,1789338803.46467,213
2026-09-13 19:33:23.472,1789338803.4723623,189
2026-09-13 19:33:23.480,1789338803.4800546,155
2026-09-13 19:33:23.487,1789338803.487747,104
2026-09-13 19:33:23.495,1789338803.4954393,48
2026-09-13 19:33:23.503,1789338803.5031316,-2
2026-09-13 19:33:23.510,1789338803.5108237,-33
2026-09-13 19:33:23.518,1789338803.518516,-55
2026-09-13 19:33:23.526,1789338803.5262084,-70
2026-09-13 19:33:23.533,1789338803.5339007,-75
2026-09-13 19:33:23.541,1789338803.541593,-72
2026-09-13 19:33:23.549,1789338803.5492854,-70
2026-09-13 19:33:23.556,1789338803.5569777,-75
2026-09-13 19:33:23.564,1789338803.56467,-67
2026-09-13 19:33:23.572,1789338803.5723622,-55
2026-09-13 19:33:23.580,1789338803.5800545,-46
2026-09-13 19:33:23.587,1789338803.5877469,-46
2026-09-13 19:33:23.595,1789338803.5954392,-43
2026-09-13 19:33:23.603,1789338803.6031315,-31
2026-09-13 19:33:23.610,1789338803.6108239,-19
2026-09-13 19:33:23.618,1789338803.6185162,-21
2026-09-13 19:33:23.626,1789338803.6262085,-21
2026-09-13 19:33:23.633,1789338803.6339006,-14
2026-09-13 19:33:23.641,1789338803.641593,-12
2026-09-13 19:33:23.649,1789338803.6492853,-14
2026-09-13 19:33:23.656,1789338803.6569777,-9
2026-09-13 19:33:23.664,1789338803.66467,-4
2026-09-13 19:33:23.672,1789338803.6723623,-7
2026-09-13 19:33:23.680,1789338803.6800547,-7
2026-09-13 19:33:23.687,1789338803.687747,-7
2026-09-13 19:33:23.695,1789338803.695439,-9
2026-09-13 19:33:23.703,1789338803.7031314,-12
2026-09-13 19:33:23.710,1789338803.7108238,-7
2026-09-13 19:33:23.718,1789338803.718516,-7
2026-09-13 19:33:23.726,1789338803.7262084,-4
2026-09-13 19:33:23.733,1789338803.7339008,0
2026-09-13 19:33:23.741,1789338803.7415931,0
2026-09-13 19:33:23.749,1789338803.7492855,0
2026-09-13 19:33:23.756,1789338803.7569778,2
2026-09-13 19:33:23.764,1789338803.76467,4
2026-09-13 19:33:23.772,1789338803.7723622,4
2026-09-13 19:33:23.780,1789338803.7800546,7
2026-09-13 19:33:23.787,1789338803.7872157,7
2026-09-13 19:33:23.794,1789338803.794908,9
2026-09-13 19:33:23.802,1789338803.8026004,9
2026-09-13 19:33:23.810,1789338803.8102927,9
2026-09-13 19:33:23.817,1789338803.817985,9
2026-09-13 19:33:23.825,1789338803.8256772,7
2026-09-13 19:33:23.833,1789338803.8333695,9
2026-09-13 19:33:23.841,1789338803.8410618,14
2026-09-13 19:33:23.848,1789338803.8487542,19
2026-09-13 19:33:23.856,1789338803.8564465,16
2026-09-13 19:33:23.864,1789338803.8641388,14
2026-09-13 19:33:23.871,1789338803.8718312,12
2026-09-13 19:33:23.879,1789338803.8795235,16
2026-09-13 19:33:23.887,1789338803.8872156,21
2026-09-13 19:33:23.894,1789338803.894908,19
2026-09-13 19:33:23.902,1789338803.9026003,16
2026-09-13 19:33:23.910,1789338803.9102926,21
2026-09-13 19:33:23.917,1789338803.917985,21
2026-09-13 19:33:23.925,1789338803.9256773,21
2026-09-13 19:33:23.933,1789338803.9333696,26
2026-09-13 19:33:23.941,1789338803.941062,24
2026-09-13 19:33:23.948,1789338803.948754,19
2026-09-13 19:33:23.956,1789338803.9564464,16
2026-09-13 19:33:23.964,1789338803.9641387,21
2026-09-13 19:33:23.971,1789338803.971831,21
2026-09-13 19:33:23.979,1789338803.9795234,14
2026-09-13 19:33:23.987,1789338803.9872158,14
2026-09-13 19:33:23.994,1789338803.994908,26
2026-09-13 19:33:24.002,1789338804.0026004,41
2026-09-13 19:33:24.010,1789338804.0102925,50
2026-09-13 19:33:24.017,1789338804.0179849,60
2026-09-13 19:33:24.025,1789338804.0256772,63
2026-09-13 19:33:24.033,1789338804.0333695,53
2026-09-13 19:33:24.041,1789338804.0410619,50
2026-09-13 19:33:24.048,1789338804.0487542,48
2026-09-13 19:33:24.056,1789338804.0564466,31
2026-09-13 19:33:24.064,1789338804.064139,7
2026-09-13 19:33:24.071,1789338804.071831,-2
2026-09-13 19:33:24.079,1789338804.0795233,2
2026-09-13 19:33:24.087,1789338804.0872157,4
2026-09-13 19:33:24.094,1789338804.094908,2
2026-09-13 19:33:24.102,1789338804.1026003,4
2026-09-13 19:33:24.110,1789338804.1102927,4
2026-09-13 19:33:24.117,1789338804.117985,2
2026-09-13 19:33:24.125,1789338804.1256773,0
2026-09-13 19:33:24.133,1789338804.1333694,12
2026-09-13 19:33:24.141,1789338804.1410618,109
2026-09-13 19:33:24.148,1789338804.1487541,346
2026-09-13 19:33:24.156,1789338804.1564465,693
2026-09-13 19:33:24.164,1789338804.1641388,965
2026-09-13 19:33:24.171,1789338804.1718311,722
2026-09-13 19:33:24.179,1789338804.1795235,-16
2026-09-13 19:33:24.187,1789338804.1872158,-356
2026-09-13 19:33:24.194,1789338804.194908,-116
2026-09-13 19:33:24.202,1789338804.2026002,-26
2026-09-13 19:33:24.210,1789338804.2102926,-121
2026-09-13 19:33:24.217,1789338804.217985,-82
2026-09-13 19:33:24.225,1789338804.2256773,-36
2026-09-13 19:33:24.233,1789338804.2333696,-65
2026-09-13 19:33:24.241,1789338804.241062,-60
2026-09-13 19:33:24.248,1789338804.2487543,-31
2026-09-13 19:33:24.256,1789338804.2564464,-29
2026-09-13 19:33:24.264,1789338804.2641387,-29
2026-09-13 19:33:24.271,1789338804.271831,-14
2026-09-13 19:33:24.279,1789338804.2795234,-4
2026-09-13 19:33:24.287,1789338804.2872157,0
2026-09-13 19:33:24.294,1789338804.294908,7
2026-09-13 19:33:24.302,1789338804.3026004,14
2026-09-13 19:33:24.310,1789338804.3102927,24
2026-09-13 19:33:24.317,1789338804.317985,36
2026-09-13 19:33:24.325,1789338804.3256772,46
2026-09-13 19:33:24.333,1789338804.3333695,55
2026-09-13 19:33:24.341,1789338804.3410618,67
2026-09-13 19:33:24.348,1789338804.3482232,80
2026-09-13 19:33:24.355,1789338804.3559155,92
2026-09-13 19:33:24.363,1789338804.363608,111
2026-09-13 19:33:24.371,1789338804.3713002,133
2026-09-13 19:33:24.378,1789338804.3789926,150
2026-09-13 19:33:24.386,1789338804.3866847,172
2026-09-13 19:33:24.394,1789338804.394377,191
2026-09-13 19:33:24.402,1789338804.4020693,201
2026-09-13 19:33:24.409,1789338804.4097617,203
2026-09-13 19:33:24.417,1789338804.417454,203
2026-09-13 19:33:24.425,1789338804.4251463,191
2026-09-13 19:33:24.432,1789338804.4328387,162
2026-09-13 19:33:24.440,1789338804.440531,121
2026-09-13 19:33:24.448,1789338804.448223,72
2026-09-13 19:33:24.455,1789338804.4559155,24
2026-09-13 19:33:24.463,1789338804.4636078,-14
2026-09-13 19:33:24.471,1789338804.4713001,-46
2026-09-13 19:33:24.478,1789338804.4789925,-65
2026-09-13 19:33:24.486,1789338804.4866848,-75
2026-09-13 19:33:24.494,1789338804.4943771,-80
2026-09-13 19:33:24.502,1789338804.5020695,-82
2026-09-13 19:33:24.509,1789338804.5097616,-80
2026-09-13 19:33:24.517,1789338804.517454,-75
2026-09-13 19:33:24.525,1789338804.5251462,-67
2026-09-13 19:33:24.532,1789338804.5328386,-58
2026-09-13 19:33:24.540,1789338804.540531,-48
2026-09-13 19:33:24.548,1789338804.5482233,-41
2026-09-13 19:33:24.555,1789338804.5559156,-36
2026-09-13 19:33:24.563,1789338804.563608,-31
2026-09-13 19:33:24.571,1789338804.5713,-29
2026-09-13 19:33:24.578,1789338804.5789924,-26
2026-09-13 19:33:24.586,1789338804.5866847,-26
2026-09-13 19:33:24.594,1789338804.594377,-26
2026-09-13 19:33:24.602,1789338804.6020694,-26
2026-09-13 19:33:24.609,1789338804.6097617,-24
2026-09-13 19:33:24.617,1789338804.617454,-19
2026-09-13 19:33:24.625,1789338804.6251464,-19
2026-09-13 19:33:24.632,1789338804.6328385,-24
2026-09-13 19:33:24.640,1789338804.6405308,-21
2026-09-13 19:33:24.648,1789338804.6482232,-19
2026-09-13 19:33:24.655,1789338804.6559155,-16
2026-09-13 19:33:24.663,1789338804.6636078,-19
2026-09-13 19:33:24.671,1789338804.6713002,-19
2026-09-13 19:33:24.678,1789338804.6789925,-19
2026-09-13 19:33:24.686,1789338804.6866848,-14
2026-09-13 19:33:24.694,1789338804.694377,-9
2026-09-13 19:33:24.702,1789338804.7020693,-14
2026-09-13 19:33:24.709,1789338804.7097616,-14
2026-09-13 19:33:24.717,1789338804.717454,-9
2026-09-13 19:33:24.725,1789338804.7251463,-7
2026-09-13 19:33:24.732,1789338804.7328386,-9
2026-09-13 19:33:24.740,1789338804.740531,-4
2026-09-13 19:33:24.748,1789338804.7482233,-4
2026-09-13 19:33:24.755,1789338804.7559154,-7
2026-09-13 19:33:24.763,1789338804.7636077,-4
2026-09-13 19:33:24.771,1789338804.7713,0
2026-09-13 19:33:24.778,1789338804.7789924,-2
2026-09-13 19:33:24.786,1789338804.7866848,-7
2026-09-13 19:33:24.794,1789338804.794377,-2
2026-09-13 19:33:24.802,1789338804.8020694,2
2026-09-13 19:33:24.809,1789338804.8097618,2
2026-09-13 19:33:24.817,1789338804.8174539,2
2026-09-13 19:33:24.825,1789338804.8251462,2
2026-09-13 19:33:24.832,1789338804.8328385,2
2026-09-13 19:33:24.840,1789338804.8405309,-2
2026-09-13 19:33:24.848,1789338804.8482232,0
2026-09-13 19:33:24.855,1789338804.8559155,2
2026-09-13 19:33:24.863,1789338804.863608,2
2026-09-13 19:33:24.871,1789338804.8713002,2
2026-09-13 19:33:24.878,1789338804.8789926,2
2026-09-13 19:33:24.886,1789338804.8866847,4
2026-09-13 19:33:24.894,1789338804.894377,2
2026-09-13 19:33:24.902,1789338804.9020693,0
2026-09-13 19:33:24.909,1789338804.9092305,4
2026-09-13 19:33:24.916,1789338804.9169228,9
2026-09-13 19:33:24.924,1789338804.9246151,9
2026-09-13 19:33:24.932,1789338804.9323075,7
2026-09-13 19:33:24.940,1789338804.9399998,7
2026-09-13 19:33:24.947,1789338804.947692,12
2026-09-13 19:33:24.955,1789338804.9553843,12
2026-09-13 19:33:24.963,1789338804.9630766,12
2026-09-13 19:33:24.970,1789338804.970769,12
2026-09-13 19:33:24.978,1789338804.9784613,12
2026-09-13 19:33:24.986,1789338804.9861536,9
2026-09-13 19:33:24.993,1789338804.993846,9
2026-09-13 19:33:25.001,1789338805.0015383,7
2026-09-13 19:33:25.009,1789338805.0092304,7
2026-09-13 19:33:25.016,1789338805.0169227,7
2026-09-13 19:33:25.024,1789338805.024615,19
2026-09-13 19:33:25.032,1789338805.0323074,36
2026-09-13 19:33:25.040,1789338805.0399997,46
2026-09-13 19:33:25.047,1789338805.047692,53
2026-09-13 19:33:25.055,1789338805.0553844,60
2026-09-13 19:33:25.063,1789338805.0630767,53
2026-09-13 19:33:25.070,1789338805.0707688,36
2026-09-13 19:33:25.078,1789338805.0784612,33
2026-09-13 19:33:25.086,1789338805.0861535,29
2026-09-13 19:33:25.093,1789338805.0938458,4
2026-09-13 19:33:25.101,1789338805.1015382,-12
2026-09-13 19:33:25.109,1789338805.1092305,-12
2026-09-13 19:33:25.116,1789338805.1169229,-12
2026-09-13 19:33:25.124,1789338805.1246152,-12
2026-09-13 19:33:25.132,1789338805.1323073,-12
2026-09-13 19:33:25.140,1789338805.1399996,-14
2026-09-13 19:33:25.147,1789338805.147692,-12
2026-09-13 19:33:25.155,1789338805.1553843,-16
2026-09-13 19:33:25.163,1789338805.1630766,-16
2026-09-13 19:33:25.170,1789338805.170769,50
2026-09-13 19:33:25.178,1789338805.1784613,244
2026-09-13 19:33:25.186,1789338805.1861537,560
2026-09-13 19:33:25.193,1789338805.1938457,916
2026-09-13 19:33:25.201,1789338805.201538,911
2026-09-13 19:33:25.209,1789338805.2092304,237
2026-09-13 19:33:25.216,1789338805.2169228,-341
2026-09-13 19:33:25.224,1789338805.224615,-213
2026-09-13 19:33:25.232,1789338805.2323074,-19
2026-09-13 19:33:25.240,1789338805.2399998,-111
2026-09-13 19:33:25.247,1789338805.247692,-126
