timestamp_local,timestamp_epoch_s,ecg_uV
2026-09-13 19:41:41.897,1789339301.8979962,-14
2026-09-13 19:41:41.905,1789339301.9056885,-4
2026-09-13 19:41:41.913,1789339301.9133809,-9
2026-09-13 19:41:41.921,1789339301.9210732,-12
2026-09-13 19:41:41.928,1789339301.9287655,0
2026-09-13 19:41:41.936,1789339301.9364576,4
2026-09-13 19:41:41.944,1789339301.94415,7
2026-09-13 19:41:41.951,1789339301.9518423,12
2026-09-13 19:41:41.959,1789339301.9595346,16
2026-09-13 19:41:41.967,1789339301.967227,12
2026-09-13 19:41:41.974,1789339301.9749193,0
2026-09-13 19:41:41.982,1789339301.9826117,0
2026-09-13 19:41:41.990,1789339301.990304,14
2026-09-13 19:41:41.997,1789339301.997996,16
2026-09-13 19:41:42.005,1789339302.0056884,14
2026-09-13 19:41:42.013,1789339302.0133808,24
2026-09-13 19:41:42.021,1789339302.021073,33
2026-09-13 19:41:42.028,1789339302.0287654,31
2026-09-13 19:41:42.036,1789339302.0364578,29
2026-09-13 19:41:42.044,1789339302.04415,31
2026-09-13 19:41:42.051,1789339302.0518425,36
2026-09-13 19:41:42.059,1789339302.0595345,31
2026-09-13 19:41:42.067,1789339302.067227,31
2026-09-13 19:41:42.074,1789339302.0749192,41
2026-09-13 19:41:42.082,1789339302.0826116,41
2026-09-13 19:41:42.090,1789339302.090304,33
2026-09-13 19:41:42.097,1789339302.0979962,36
2026-09-13 19:41:42.105,1789339302.1056886,53
2026-09-13 19:41:42.113,1789339302.113381,77
2026-09-13 19:41:42.121,1789339302.121073,97
2026-09-13 19:41:42.128,1789339302.1287653,104
2026-09-13 19:41:42.136,1789339302.1364577,94
2026-09-13 19:41:42.144,1789339302.14415,77
2026-09-13 19:41:42.151,1789339302.1518424,77
2026-09-13 19:41:42.159,1789339302.1595347,82
2026-09-13 19:41:42.167,1789339302.167227,53
2026-09-13 19:41:42.174,1789339302.1749194,29
2026-09-13 19:41:42.182,1789339302.1826115,36
2026-09-13 19:41:42.190,1789339302.1903038,48
2026-09-13 19:41:42.197,1789339302.1979961,43
2026-09-13 19:41:42.205,1789339302.2056885,43
2026-09-13 19:41:42.213,1789339302.2133808,50
2026-09-13 19:41:42.221,1789339302.2210732,55
2026-09-13 19:41:42.228,1789339302.2287655,55
2026-09-13 19:41:42.236,1789339302.2364578,50
2026-09-13 19:41:42.244,1789339302.24415,77
2026-09-13 19:41:42.251,1789339302.2518423,208
2026-09-13 19:41:42.259,1789339302.2595346,477
2026-09-13 19:41:42.267,1789339302.267227,839
2026-09-13 19:41:42.274,1789339302.2749193,1057
2026-09-13 19:41:42.282,1789339302.2826116,674
2026-09-13 19:41:42.290,1789339302.290304,-123
2026-09-13 19:41:42.297,1789339302.2979963,-356
2026-09-13 19:41:42.305,1789339302.3056884,-21
2026-09-13 19:41:42.313,1789339302.3133807,46
2026-09-13 19:41:42.321,1789339302.321073,-53
2026-09-13 19:41:42.328,1789339302.3287654,21
2026-09-13 19:41:42.336,1789339302.3364577,63
2026-09-13 19:41:42.344,1789339302.34415,14
2026-09-13 19:41:42.351,1789339302.3518424,21
2026-09-13 19:41:42.359,1789339302.3595347,50
2026-09-13 19:41:42.367,1789339302.3672268,53
2026-09-13 19:41:42.374,1789339302.3749192,58
2026-09-13 19:41:42.382,1789339302.3826115,70
2026-09-13 19:41:42.390,1789339302.3903039,80
2026-09-13 19:41:42.397,1789339302.3979962,84
2026-09-13 19:41:42.405,1789339302.4056885,92
2026-09-13 19:41:42.413,1789339302.4133809,99
2026-09-13 19:41:42.421,1789339302.4210732,106
2026-09-13 19:41:42.428,1789339302.4287655,116
2026-09-13 19:41:42.436,1789339302.4364576,130
2026-09-13 19:41:42.444,1789339302.44415,138
2026-09-13 19:41:42.451,1789339302.4518423,147
2026-09-13 19:41:42.459,1789339302.4590034,174
2026-09-13 19:41:42.466,1789339302.4666958,198
2026-09-13 19:41:42.474,1789339302.4743881,223
2026-09-13 19:41:42.482,1789339302.4820805,249
2026-09-13 19:41:42.489,1789339302.4897728,276
2026-09-13 19:41:42.497,1789339302.497465,295
2026-09-13 19:41:42.505,1789339302.5051572,315
2026-09-13 19:41:42.512,1789339302.5128496,324
2026-09-13 19:41:42.520,1789339302.520542,312
2026-09-13 19:41:42.528,1789339302.5282342,276
2026-09-13 19:41:42.535,1789339302.5359266,230
2026-09-13 19:41:42.543,1789339302.543619,167
2026-09-13 19:41:42.551,1789339302.5513113,87
2026-09-13 19:41:42.559,1789339302.5590034,16
2026-09-13 19:41:42.566,1789339302.5666957,-31
2026-09-13 19:41:42.574,1789339302.574388,-67
2026-09-13 19:41:42.582,1789339302.5820804,-89
2026-09-13 19:41:42.589,1789339302.5897727,-97
2026-09-13 19:41:42.597,1789339302.597465,-104
2026-09-13 19:41:42.605,1789339302.6051574,-109
2026-09-13 19:41:42.612,1789339302.6128497,-111
2026-09-13 19:41:42.620,1789339302.6205418,-101
2026-09-13 19:41:42.628,1789339302.6282341,-89
2026-09-13 19:41:42.635,1789339302.6359265,-89
2026-09-13 19:41:42.643,1789339302.6436188,-84
2026-09-13 19:41:42.651,1789339302.6513112,-65
2026-09-13 19:41:42.659,1789339302.6590035,-60
2026-09-13 19:41:42.666,1789339302.6666958,-65
2026-09-13 19:41:42.674,1789339302.6743882,-55
2026-09-13 19:41:42.682,1789339302.6820803,-41
2026-09-13 19:41:42.689,1789339302.6897726,-31
2026-09-13 19:41:42.697,1789339302.697465,-31
2026-09-13 19:41:42.705,1789339302.7051573,-31
2026-09-13 19:41:42.712,1789339302.7128496,-21
2026-09-13 19:41:42.720,1789339302.720542,-14
2026-09-13 19:41:42.728,1789339302.7282343,-24
2026-09-13 19:41:42.735,1789339302.7359266,-31
2026-09-13 19:41:42.743,1789339302.7436187,-19
2026-09-13 19:41:42.751,1789339302.751311,-7
2026-09-13 19:41:42.759,1789339302.7590034,-14
2026-09-13 19:41:42.766,1789339302.7666957,-14
2026-09-13 19:41:42.774,1789339302.774388,-7
2026-09-13 19:41:42.782,1789339302.7820804,-7
2026-09-13 19:41:42.789,1789339302.7897727,-12
2026-09-13 19:41:42.797,1789339302.797465,-7
2026-09-13 19:41:42.805,1789339302.8051572,0
2026-09-13 19:41:42.812,1789339302.8128495,0
2026-09-13 19:41:42.820,1789339302.8205419,-2
2026-09-13 19:41:42.828,1789339302.8282342,-4
2026-09-13 19:41:42.835,1789339302.8359265,-9
2026-09-13 19:41:42.843,1789339302.8436189,2
2026-09-13 19:41:42.851,1789339302.8513112,12
2026-09-13 19:41:42.859,1789339302.8590035,7
2026-09-13 19:41:42.866,1789339302.8666956,7
2026-09-13 19:41:42.874,1789339302.874388,14
2026-09-13 19:41:42.882,1789339302.8820803,14
2026-09-13 19:41:42.889,1789339302.8897727,14
2026-09-13 19:41:42.897,1789339302.897465,19
2026-09-13 19:41:42.905,1789339302.9051573,19
2026-09-13 19:41:42.912,1789339302.9128497,16
2026-09-13 19:41:42.920,1789339302.920542,21
2026-09-13 19:41:42.928,1789339302.928234,21
2026-09-13 19:41:42.935,1789339302.9359264,12
2026-09-13 19:41:42.943,1789339302.9436188,9
2026-09-13 19:41:42.951,1789339302.951311,29
2026-09-13 19:41:42.959,1789339302.9590034,53
2026-09-13 19:41:42.966,1789339302.9666958,63
2026-09-13 19:41:42.974,1789339302.9743881,67
2026-09-13 19:41:42.982,1789339302.9820805,65
2026-09-13 19:41:42.989,1789339302.9897728,53
2026-09-13 19:41:42.997,1789339302.997465,48
2026-09-13 19:41:43.005,1789339303.0051572,48
2026-09-13 19:41:43.012,1789339303.0128496,31
2026-09-13 19:41:43.020,1789339303.020011,7
2026-09-13 19:41:43.027,1789339303.0277033,12
2026-09-13 19:41:43.035,1789339303.0353956,14
2026-09-13 19:41:43.043,1789339303.043088,0
2026-09-13 19:41:43.050,1789339303.0507803,0
2026-09-13 19:41:43.058,1789339303.0584724,12
2026-09-13 19:41:43.066,1789339303.0661647,12
2026-09-13 19:41:43.073,1789339303.073857,7
2026-09-13 19:41:43.081,1789339303.0815494,2
2026-09-13 19:41:43.089,1789339303.0892417,19
2026-09-13 19:41:43.096,1789339303.096934,130
2026-09-13 19:41:43.104,1789339303.1046264,385
2026-09-13 19:41:43.112,1789339303.1123188,761
2026-09-13 19:41:43.120,1789339303.1200109,1076
2026-09-13 19:41:43.127,1789339303.1277032,834
2026-09-13 19:41:43.135,1789339303.1353955,31
2026-09-13 19:41:43.143,1789339303.1430879,-344
2026-09-13 19:41:43.150,1789339303.1507802,-82
2026-09-13 19:41:43.158,1789339303.1584725,4
2026-09-13 19:41:43.166,1789339303.1661649,-113
2026-09-13 19:41:43.173,1789339303.1738572,-75
2026-09-13 19:41:43.181,1789339303.1815493,-26
2026-09-13 19:41:43.189,1789339303.1892416,-65
2026-09-13 19:41:43.196,1789339303.196934,-58
2026-09-13 19:41:43.204,1789339303.2046263,-24
2026-09-13 19:41:43.212,1789339303.2123187,-24
2026-09-13 19:41:43.220,1789339303.220011,-29
2026-09-13 19:41:43.227,1789339303.2277033,-12
2026-09-13 19:41:43.235,1789339303.2353957,0
2026-09-13 19:41:43.243,1789339303.2430878,2
2026-09-13 19:41:43.250,1789339303.25078,7
2026-09-13 19:41:43.258,1789339303.2584724,14
2026-09-13 19:41:43.266,1789339303.2661648,29
2026-09-13 19:41:43.273,1789339303.273857,38
2026-09-13 19:41:43.281,1789339303.2815495,43
2026-09-13 19:41:43.289,1789339303.2892418,46
2026-09-13 19:41:43.296,1789339303.2969341,65
2026-09-13 19:41:43.304,1789339303.3046262,89
2026-09-13 19:41:43.312,1789339303.3123186,101
2026-09-13 19:41:43.320,1789339303.320011,116
2026-09-13 19:41:43.327,1789339303.3277032,152
2026-09-13 19:41:43.335,1789339303.3353956,184
2026-09-13 19:41:43.343,1789339303.343088,194
2026-09-13 19:41:43.350,1789339303.3507802,210
2026-09-13 19:41:43.358,1789339303.3584726,230
2026-09-13 19:41:43.366,1789339303.3661647,225
2026-09-13 19:41:43.373,1789339303.373857,203
2026-09-13 19:41:43.381,1789339303.3815494,174
2026-09-13 19:41:43.389,1789339303.3892417,130
2026-09-13 19:41:43.396,1789339303.396934,70
2026-09-13 19:41:43.404,1789339303.4046264,7
2026-09-13 19:41:43.412,1789339303.4123187,-41
2026-09-13 19:41:43.420,1789339303.420011,-72
2026-09-13 19:41:43.427,1789339303.4277031,-92
2026-09-13 19:41:43.435,1789339303.4353955,-109
2026-09-13 19:41:43.443,1789339303.4430878,-121
2026-09-13 19:41:43.450,1789339303.4507802,-116
2026-09-13 19:41:43.458,1789339303.4584725,-109
2026-09-13 19:41:43.466,1789339303.4661648,-104
2026-09-13 19:41:43.473,1789339303.4738572,-97
2026-09-13 19:41:43.481,1789339303.4815495,-92
2026-09-13 19:41:43.489,1789339303.4892416,-89
2026-09-13 19:41:43.496,1789339303.496934,-77
2026-09-13 19:41:43.504,1789339303.5046263,-65
2026-09-13 19:41:43.512,1789339303.5123186,-63
2026-09-13 19:41:43.520,1789339303.520011,-63
2026-09-13 19:41:43.527,1789339303.5277033,-60
2026-09-13 19:41:43.535,1789339303.5353956,-48
2026-09-13 19:41:43.543,1789339303.543088,-38
2026-09-13 19:41:43.550,1789339303.5507803,-41
2026-09-13 19:41:43.558,1789339303.5584724,-41
2026-09-13 19:41:43.566,1789339303.5661647,-33
2026-09-13 19:41:43.573,1789339303.573857,-26
2026-09-13 19:41:43.580,1789339303.5809875,-26
2026-09-13 19:41:43.588,1789339303.5886798,-29
2026-09-13 19:41:43.596,1789339303.5963721,-21
2026-09-13 19:41:43.604,1789339303.6040645,-16
2026-09-13 19:41:43.611,1789339303.6117568,-31
2026-09-13 19:41:43.619,1789339303.619449,-26
2026-09-13 19:41:43.627,1789339303.6271412,-9
2026-09-13 19:41:43.634,1789339303.6348336,-16
2026-09-13 19:41:43.642,1789339303.642526,-29
2026-09-13 19:41:43.650,1789339303.6502182,-16
2026-09-13 19:41:43.657,1789339303.6579106,-7
2026-09-13 19:41:43.665,1789339303.665603,-14
2026-09-13 19:41:43.673,1789339303.6732953,-12
2026-09-13 19:41:43.680,1789339303.6809874,-7
2026-09-13 19:41:43.688,1789339303.6886797,-4
2026-09-13 19:41:43.696,1789339303.696372,-4
2026-09-13 19:41:43.704,1789339303.7040644,-4
2026-09-13 19:41:43.711,1789339303.7117567,-2
2026-09-13 19:41:43.719,1789339303.719449,4
2026-09-13 19:41:43.727,1789339303.7271414,2
2026-09-13 19:41:43.734,1789339303.7348337,-2
2026-09-13 19:41:43.742,1789339303.7425258,2
2026-09-13 19:41:43.750,1789339303.7502182,4
2026-09-13 19:41:43.757,1789339303.7579105,4
2026-09-13 19:41:43.765,1789339303.7656028,9
2026-09-13 19:41:43.773,1789339303.7732952,14
2026-09-13 19:41:43.780,1789339303.7809875,9
2026-09-13 19:41:43.788,1789339303.7886798,7
2026-09-13 19:41:43.796,1789339303.7963722,14
2026-09-13 19:41:43.804,1789339303.8040643,12
2026-09-13 19:41:43.811,1789339303.8117566,4
2026-09-13 19:41:43.819,1789339303.819449,2
2026-09-13 19:41:43.827,1789339303.8271413,9
2026-09-13 19:41:43.834,1789339303.8348336,29
2026-09-13 19:41:43.842,1789339303.842526,48
2026-09-13 19:41:43.850,1789339303.8502183,65
2026-09-13 19:41:43.857,1789339303.8579106,72
2026-09-13 19:41:43.865,1789339303.8656027,58
2026-09-13 19:41:43.873,1789339303.873295,43
2026-09-13 19:41:43.880,1789339303.8809874,48
2026-09-13 19:41:43.888,1789339303.8886797,41
2026-09-13 19:41:43.896,1789339303.896372,19
2026-09-13 19:41:43.904,1789339303.9040644,4
2026-09-13 19:41:43.911,1789339303.9117568,0
2026-09-13 19:41:43.919,1789339303.919449,7
2026-09-13 19:41:43.927,1789339303.9271412,16
2026-09-13 19:41:43.934,1789339303.9348335,9
2026-09-13 19:41:43.942,1789339303.9425259,-4
2026-09-13 19:41:43.950,1789339303.9502182,2
2026-09-13 19:41:43.957,1789339303.9579105,9
2026-09-13 19:41:43.965,1789339303.9656029,0
2026-09-13 19:41:43.973,1789339303.9732952,7
2026-09-13 19:41:43.980,1789339303.9809875,106
2026-09-13 19:41:43.988,1789339303.9886796,339
2026-09-13 19:41:43.996,1789339303.996372,681
2026-09-13 19:41:44.004,1789339304.0040643,1025
2026-09-13 19:41:44.011,1789339304.0117567,899
2026-09-13 19:41:44.019,1789339304.019449,121
2026-09-13 19:41:44.027,1789339304.0271413,-361
2026-09-13 19:41:44.034,1789339304.0348337,-123
2026-09-13 19:41:44.042,1789339304.042526,26
2026-09-13 19:41:44.050,1789339304.050218,-97
2026-09-13 19:41:44.057,1789339304.0579104,-80
2026-09-13 19:41:44.065,1789339304.0656028,-7
2026-09-13 19:41:44.073,1789339304.073295,-31
2026-09-13 19:41:44.080,1789339304.0809875,-38
2026-09-13 19:41:44.088,1789339304.0886798,-14
2026-09-13 19:41:44.096,1789339304.0963721,-14
2026-09-13 19:41:44.104,1789339304.1040645,-4
2026-09-13 19:41:44.111,1789339304.1117568,19
2026-09-13 19:41:44.119,1789339304.119449,24
2026-09-13 19:41:44.127,1789339304.1271412,21
2026-09-13 19:41:44.134,1789339304.1348336,36
2026-09-13 19:41:44.141,1789339304.141995,55
2026-09-13 19:41:44.149,1789339304.1496873,55
2026-09-13 19:41:44.157,1789339304.1573796,55
2026-09-13 19:41:44.165,1789339304.165072,75
2026-09-13 19:41:44.172,1789339304.1727643,97
2026-09-13 19:41:44.180,1789339304.1804564,104
2026-09-13 19:41:44.188,1789339304.1881487,118
2026-09-13 19:41:44.195,1789339304.195841,140
2026-09-13 19:41:44.203,1789339304.2035334,169
2026-09-13 19:41:44.211,1789339304.2112257,198
2026-09-13 19:41:44.218,1789339304.218918,220
2026-09-13 19:41:44.226,1789339304.2266104,242
2026-09-13 19:41:44.234,1789339304.2343028,266
2026-09-13 19:41:44.241,1789339304.2419949,283
2026-09-13 19:41:44.249,1789339304.2496872,278
2026-09-13 19:41:44.257,1789339304.2573795,259
2026-09-13 19:41:44.265,1789339304.2650719,237
2026-09-13 19:41:44.272,1789339304.2727642,189
2026-09-13 19:41:44.280,1789339304.2804565,111
2026-09-13 19:41:44.288,1789339304.2881489,55
2026-09-13 19:41:44.295,1789339304.2958412,14
2026-09-13 19:41:44.303,1789339304.3035333,-33
2026-09-13 19:41:44.311,1789339304.3112257,-70
2026-09-13 19:41:44.318,1789339304.318918,-87
2026-09-13 19:41:44.326,1789339304.3266103,-87
2026-09-13 19:41:44.334,1789339304.3343027,-80
2026-09-13 19:41:44.341,1789339304.341995,-82
2026-09-13 19:41:44.349,1789339304.3496873,-92
2026-09-13 19:41:44.357,1789339304.3573797,-84
2026-09-13 19:41:44.365,1789339304.3650718,-63
2026-09-13 19:41:44.372,1789339304.372764,-55
2026-09-13 19:41:44.380,1789339304.3804564,-50
2026-09-13 19:41:44.388,1789339304.3881488,-36
2026-09-13 19:41:44.395,1789339304.3958411,-31
2026-09-13 19:41:44.403,1789339304.4035335,-33
2026-09-13 19:41:44.411,1789339304.4112258,-29
2026-09-13 19:41:44.418,1789339304.4189181,-14
2026-09-13 19:41:44.426,1789339304.4266102,-16
2026-09-13 19:41:44.434,1789339304.4343026,-21
2026-09-13 19:41:44.441,1789339304.441995,-9
2026-09-13 19:41:44.449,1789339304.4496872,-4
2026-09-13 19:41:44.457,1789339304.4573796,-7
2026-09-13 19:41:44.465,1789339304.465072,-7
2026-09-13 19:41:44.472,1789339304.4727643,-4
2026-09-13 19:41:44.480,1789339304.4804566,-2
2026-09-13 19:41:44.488,1789339304.4881487,-2
2026-09-13 19:41:44.495,1789339304.495841,-2
2026-09-13 19:41:44.503,1789339304.5035334,4
2026-09-13 19:41:44.511,1789339304.5112257,9
2026-09-13 19:41:44.518,1789339304.518918,4
2026-09-13 19:41:44.526,1789339304.5266104,7
2026-09-13 19:41:44.534,1789339304.5343027,16
2026-09-13 19:41:44.541,1789339304.541995,12
2026-09-13 19:41:44.549,1789339304.5496871,7
2026-09-13 19:41:44.557,1789339304.5573795,14
2026-09-13 19:41:44.565,1789339304.5650718,24
2026-09-13 19:41:44.572,1789339304.5727642,24
2026-09-13 19:41:44.580,1789339304.5804565,24
2026-09-13 19:41:44.588,1789339304.5881488,31
2026-09-13 19:41:44.595,1789339304.5958412,31
2026-09-13 19:41:44.603,1789339304.6035335,33
2026-09-13 19:41:44.611,1789339304.6112256,36
2026-09-13 19:41:44.618,1789339304.618918,36
2026-09-13 19:41:44.626,1789339304.6266103,36
2026-09-13 19:41:44.634,1789339304.6343026,46
2026-09-13 19:41:44.641,1789339304.641995,46
2026-09-13 19:41:44.649,1789339304.6496873,31
2026-09-13 19:41:44.657,1789339304.6573796,38
2026-09-13 19:41:44.665,1789339304.665072,55
2026-09-13 19:41:44.672,1789339304.6727643,60
2026-09-13 19:41:44.680,1789339304.6804564,72
2026-09-13 19:41:44.688,1789339304.6881487,104
2026-09-13 19:41:44.695,1789339304.695841,111
2026-09-13 19:41:44.702,1789339304.7029717,84
2026-09-13 19:41:44.710,1789339304.710664,77
2026-09-13 19:41:44.718,1789339304.7183564,84
2026-09-13 19:41:44.726,1789339304.7260487,67
2026-09-13 19:41:44.733,1789339304.733741,41
2026-09-13 19:41:44.741,1789339304.7414331,24
2026-09-13 19:41:44.749,1789339304.7491255,31
2026-09-13 19:41:44.756,1789339304.7568178,43
2026-09-13 19:41:44.764,1789339304.7645102,53
2026-09-13 19:41:44.772,1789339304.7722025,55
2026-09-13 19:41:44.779,1789339304.7798948,46
2026-09-13 19:41:44.787,1789339304.7875872,38
2026-09-13 19:41:44.795,1789339304.7952795,48
2026-09-13 19:41:44.802,1789339304.8029716,60
2026-09-13 19:41:44.810,1789339304.810664,123
2026-09-13 19:41:44.818,1789339304.8183563,337
2026-09-13 19:41:44.826,1789339304.8260486,693
2026-09-13 19:41:44.833,1789339304.833741,1064
2026-09-13 19:41:44.841,1789339304.8414333,999
2026-09-13 19:41:44.849,1789339304.8491256,225
2026-09-13 19:41:44.856,1789339304.856818,-385
2026-09-13 19:41:44.864,1789339304.86451,-172
2026-09-13 19:41:44.872,1789339304.8722024,80
2026-09-13 19:41:44.879,1789339304.8798947,-36
2026-09-13 19:41:44.887,1789339304.887587,-46
2026-09-13 19:41:44.895,1789339304.8952794,41
2026-09-13 19:41:44.902,1789339304.9029717,19
2026-09-13 19:41:44.910,1789339304.910664,4
2026-09-13 19:41:44.918,1789339304.9183564,43
2026-09-13 19:41:44.926,1789339304.9260485,58
2026-09-13 19:41:44.933,1789339304.9337409,55
2026-09-13 19:41:44.941,1789339304.9414332,70
2026-09-13 19:41:44.949,1789339304.9491255,82
2026-09-13 19:41:44.956,1789339304.9568179,84
2026-09-13 19:41:44.964,1789339304.9645102,89
2026-09-13 19:41:44.972,1789339304.9722025,99
2026-09-13 19:41:44.979,1789339304.9798949,99
2026-09-13 19:41:44.987,1789339304.987587,106
2026-09-13 19:41:44.995,1789339304.9952793,143
2026-09-13 19:41:45.002,1789339305.0029716,167
2026-09-13 19:41:45.010,1789339305.010664,174
2026-09-13 19:41:45.018,1789339305.0183563,189
2026-09-13 19:41:45.026,1789339305.0260487,208
2026-09-13 19:41:45.033,1789339305.033741,237
2026-09-13 19:41:45.041,1789339305.0414333,278
2026-09-13 19:41:45.049,1789339305.0491254,312
2026-09-13 19:41:45.056,1789339305.0568178,337
2026-09-13 19:41:45.064,1789339305.06451,363
2026-09-13 19:41:45.072,1789339305.0722024,385
2026-09-13 19:41:45.079,1789339305.0798948,380
2026-09-13 19:41:45.087,1789339305.087587,339
2026-09-13 19:41:45.095,1789339305.0952795,288
2026-09-13 19:41:45.102,1789339305.1029718,237
2026-09-13 19:41:45.110,1789339305.110664,169
2026-09-13 19:41:45.118,1789339305.1183562,94
2026-09-13 19:41:45.126,1789339305.1260486,24
2026-09-13 19:41:45.133,1789339305.133741,-21
2026-09-13 19:41:45.141,1789339305.1414332,-50
2026-09-13 19:41:45.149,1789339305.1491256,-70
2026-09-13 19:41:45.156,1789339305.156818,-75
2026-09-13 19:41:45.164,1789339305.1645103,-80
2026-09-13 19:41:45.172,1789339305.1722023,-72
2026-09-13 19:41:45.179,1789339305.1798947,-55
2026-09-13 19:41:45.187,1789339305.187587,-50
2026-09-13 19:41:45.195,1789339305.1952794,-53
2026-09-13 19:41:45.202,1789339305.2029717,-43
2026-09-13 19:41:45.210,1789339305.210664,-33
2026-09-13 19:41:45.218,1789339305.2183564,-33
2026-09-13 19:41:45.226,1789339305.2260487,-21
2026-09-13 19:41:45.233,1789339305.233741,-14
2026-09-13 19:41:45.241,1789339305.2414331,-14
2026-09-13 19:41:45.249,1789339305.2491255,-2
2026-09-13 19:41:45.256,1789339305.2568178,7
2026-09-13 19:41:45.263,1789339305.263979,2
2026-09-13 19:41:45.271,1789339305.2716713,7
2026-09-13 19:41:45.279,1789339305.2793636,24
2026-09-13 19:41:45.287,1789339305.287056,21
2026-09-13 19:41:45.294,1789339305.2947483,12
2026-09-13 19:41:45.302,1789339305.3024404,12
2026-09-13 19:41:45.310,1789339305.3101327,19
2026-09-13 19:41:45.317,1789339305.317825,24
2026-09-13 19:41:45.325,1789339305.3255174,21
2026-09-13 19:41:45.333,1789339305.3332098,24
2026-09-13 19:41:45.340,1789339305.340902,26
2026-09-13 19:41:45.348,1789339305.3485944,29
2026-09-13 19:41:45.356,1789339305.3562868,36
2026-09-13 19:41:45.363,1789339305.3639789,36
2026-09-13 19:41:45.371,1789339305.3716712,33
2026-09-13 19:41:45.379,1789339305.3793635,41
2026-09-13 19:41:45.387,1789339305.3870559,50
2026-09-13 19:41:45.394,1789339305.3947482,53
2026-09-13 19:41:45.402,1789339305.4024405,50
2026-09-13 19:41:45.410,1789339305.410133,50
2026-09-13 19:41:45.417,1789339305.4178252,46
2026-09-13 19:41:45.425,1789339305.4255173,50
2026-09-13 19:41:45.433,1789339305.4332097,60
2026-09-13 19:41:45.440,1789339305.440902,75
2026-09-13 19:41:45.448,1789339305.4485943,89
2026-09-13 19:41:45.456,1789339305.4562867,99
2026-09-13 19:41:45.463,1789339305.463979,99
2026-09-13 19:41:45.471,1789339305.4716713,94
2026-09-13 19:41:45.479,1789339305.4793637,94
2026-09-13 19:41:45.487,1789339305.4870558,82
2026-09-13 19:41:45.494,1789339305.494748,53
2026-09-13 19:41:45.502,1789339305.5024405,33
2026-09-13 19:41:45.510,1789339305.5101328,36
2026-09-13 19:41:45.517,1789339305.5178251,38
2026-09-13 19:41:45.525,1789339305.5255175,36
2026-09-13 19:41:45.533,1789339305.5332098,36
2026-09-13 19:41:45.540,1789339305.5409021,38
2026-09-13 19:41:45.548,1789339305.5485942,46
2026-09-13 19:41:45.556,1789339305.5562866,46
2026-09-13 19:41:45.563,1789339305.563979,41
2026-09-13 19:41:45.571,1789339305.5716712,41
2026-09-13 19:41:45.579,1789339305.5793636,97
2026-09-13 19:41:45.587,1789339305.587056,300
2026-09-13 19:41:45.594,1789339305.5947483,649
2026-09-13 19:41:45.602,1789339305.6024406,999
2026-09-13 19:41:45.610,1789339305.6101327,953
2026-09-13 19:41:45.617,1789339305.617825,269
2026-09-13 19:41:45.625,1789339305.6255174,-322
2026-09-13 19:41:45.633,1789339305.6332097,-181
2026-09-13 19:41:45.640,1789339305.640902,48
2026-09-13 19:41:45.648,1789339305.6485944,-46
2026-09-13 19:41:45.656,1789339305.6562867,-72
2026-09-13 19:41:45.663,1789339305.663979,4
2026-09-13 19:41:45.671,1789339305.6716712,-4
2026-09-13 19:41:45.679,1789339305.6793635,-24
2026-09-13 19:41:45.687,1789339305.6870558,9
2026-09-13 19:41:45.694,1789339305.6947482,21
2026-09-13 19:41:45.702,1789339305.7024405,14
2026-09-13 19:41:45.710,1789339305.7101328,24
2026-09-13 19:41:45.717,1789339305.7178252,41
2026-09-13 19:41:45.725,1789339305.7255175,46
2026-09-13 19:41:45.733,1789339305.7332096,48
2026-09-13 19:41:45.740,1789339305.740902,55
2026-09-13 19:41:45.748,1789339305.7485943,65
2026-09-13 19:41:45.756,1789339305.7562866,77
2026-09-13 19:41:45.763,1789339305.763979,89
2026-09-13 19:41:45.771,1789339305.7716713,101
2026-09-13 19:41:45.779,1789339305.7793636,116
2026-09-13 19:41:45.787,1789339305.787056,133
2026-09-13 19:41:45.794,1789339305.7947483,147
2026-09-13 19:41:45.802,1789339305.8024404,167
2026-09-13 19:41:45.810,1789339305.8101327,196
2026-09-13 19:41:45.817,1789339305.817825,223
2026-09-13 19:41:45.824,1789339305.8249862,244
2026-09-13 19:41:45.832,1789339305.8326786,266
2026-09-13 19:41:45.840,1789339305.840371,281
2026-09-13 19:41:45.848,1789339305.8480632,278
2026-09-13 19:41:45.855,1789339305.8557556,264
2026-09-13 19:41:45.863,1789339305.8634477,235
2026-09-13 19:41:45.871,1789339305.87114,181
2026-09-13 19:41:45.878,1789339305.8788323,116
2026-09-13 19:41:45.886,1789339305.8865247,53
2026-09-13 19:41:45.894,1789339305.894217,-2
2026-09-13 19:41:45.901,1789339305.9019094,-48
2026-09-13 19:41:45.909,1789339305.9096017,-75
2026-09-13 19:41:45.917,1789339305.917294,-84
2026-09-13 19:41:45.924,1789339305.9249861,-87
2026-09-13 19:41:45.932,1789339305.9326785,-89
2026-09-13 19:41:45.940,1789339305.9403708,-92
2026-09-13 19:41:45.948,1789339305.9480631,-87
2026-09-13 19:41:45.955,1789339305.9557555,-82
2026-09-13 19:41:45.963,1789339305.9634478,-80
2026-09-13 19:41:45.971,1789339305.9711401,-70
2026-09-13 19:41:45.978,1789339305.9788325,-58
2026-09-13 19:41:45.986,1789339305.9865246,-50
2026-09-13 19:41:45.994,1789339305.994217,-38
2026-09-13 19:41:46.001,1789339306.0019093,-36
2026-09-13 19:41:46.009,1789339306.0096016,-36
2026-09-13 19:41:46.017,1789339306.017294,-26
2026-09-13 19:41:46.024,1789339306.0249863,-21
2026-09-13 19:41:46.032,1789339306.0326786,-19
2026-09-13 19:41:46.040,1789339306.040371,-14
2026-09-13 19:41:46.048,1789339306.048063,-14
2026-09-13 19:41:46.055,1789339306.0557554,-19
2026-09-13 19:41:46.063,1789339306.0634477,-19
2026-09-13 19:41:46.071,1789339306.07114,-14
2026-09-13 19:41:46.078,1789339306.0788324,-2
2026-09-13 19:41:46.086,1789339306.0865247,-2
2026-09-13 19:41:46.094,1789339306.094217,-9
2026-09-13 19:41:46.101,1789339306.1019094,-4
2026-09-13 19:41:46.109,1789339306.1096015,-4
2026-09-13 19:41:46.117,1789339306.1172938,-4
2026-09-13 19:41:46.124,1789339306.1249862,-2
2026-09-13 19:41:46.132,1789339306.1326785,0
2026-09-13 19:41:46.140,1789339306.1403708,2
2026-09-13 19:41:46.148,1789339306.1480632,4
2026-09-13 19:41:46.155,1789339306.1557555,7
2026-09-13 19:41:46.163,1789339306.1634479,7
2026-09-13 19:41:46.171,1789339306.17114,9
2026-09-13 19:41:46.178,1789339306.1788323,9
2026-09-13 19:41:46.186,1789339306.1865246,12
2026-09-13 19:41:46.194,1789339306.194217,14
2026-09-13 19:41:46.201,1789339306.2019093,12
2026-09-13 19:41:46.209,1789339306.2096016,9
2026-09-13 19:41:46.217,1789339306.217294,12
2026-09-13 19:41:46.224,1789339306.2249863,12
2026-09-13 19:41:46.232,1789339306.2326784,19
2026-09-13 19:41:46.240,1789339306.2403708,33
2026-09-13 19:41:46.248,1789339306.248063,41
2026-09-13 19:41:46.255,1789339306.2557554,60
2026-09-13 19:41:46.263,1789339306.2634478,80
2026-09-13 19:41:46.271,1789339306.27114,60
2026-09-13 19:41:46.278,1789339306.2788324,46
2026-09-13 19:41:46.286,1789339306.2865248,55
2026-09-13 19:41:46.294,1789339306.2942169,43
2026-09-13 19:41:46.301,1789339306.3019092,12
2026-09-13 19:41:46.309,1789339306.3096015,4
2026-09-13 19:41:46.317,1789339306.317294,9
2026-09-13 19:41:46.324,1789339306.3249862,2
2026-09-13 19:41:46.332,1789339306.3326786,-2
2026-09-13 19:41:46.340,1789339306.340371,9
2026-09-13 19:41:46.348,1789339306.3480632,16
2026-09-13 19:41:46.355,1789339306.3557556,9
2026-09-13 19:41:46.363,1789339306.3634477,12
2026-09-13 19:41:46.371,1789339306.37114,14
2026-09-13 19:41:46.378,1789339306.3788323,33
2026-09-13 19:41:46.385,1789339306.3859632,162
2026-09-13 19:41:46.393,1789339306.3936555,443
2026-09-13 19:41:46.401,1789339306.4013479,812
2026-09-13 19:41:46.409,1789339306.4090402,1052
2026-09-13 19:41:46.416,1789339306.4167325,691
2026-09-13 19:41:46.424,1789339306.4244246,-94
2026-09-13 19:41:46.432,1789339306.432117,-324
2026-09-13 19:41:46.439,1789339306.4398093,-46
2026-09-13 19:41:46.447,1789339306.4475017,-14
2026-09-13 19:41:46.455,1789339306.455194,-109
2026-09-13 19:41:46.462,1789339306.4628863,-48
2026-09-13 19:41:46.470,1789339306.4705787,-24
2026-09-13 19:41:46.478,1789339306.478271,-63
2026-09-13 19:41:46.485,1789339306.485963,-38
2026-09-13 19:41:46.493,1789339306.4936554,-9
2026-09-13 19:41:46.501,1789339306.5013478,-16
2026-09-13 19:41:46.509,1789339306.50904,-12
2026-09-13 19:41:46.516,1789339306.5167325,2
2026-09-13 19:41:46.524,1789339306.5244248,4
2026-09-13 19:41:46.532,1789339306.5321171,12
2026-09-13 19:41:46.539,1789339306.5398095,26
2026-09-13 19:41:46.547,1789339306.5475016,29
2026-09-13 19:41:46.555,1789339306.555194,36
2026-09-13 19:41:46.562,1789339306.5628862,55
2026-09-13 19:41:46.570,1789339306.5705786,63
2026-09-13 19:41:46.578,1789339306.578271,60
2026-09-13 19:41:46.585,1789339306.5859632,75
2026-09-13 19:41:46.593,1789339306.5936556,109
2026-09-13 19:41:46.601,1789339306.601348,128
2026-09-13 19:41:46.609,1789339306.60904,140
2026-09-13 19:41:46.616,1789339306.6167324,167
2026-09-13 19:41:46.624,1789339306.6244247,196
2026-09-13 19:41:46.632,1789339306.632117,213
2026-09-13 19:41:46.639,1789339306.6398094,225
2026-09-13 19:41:46.647,1789339306.6475017,232
2026-09-13 19:41:46.655,1789339306.655194,230
2026-09-13 19:41:46.662,1789339306.6628864,215
2026-09-13 19:41:46.670,1789339306.6705785,179
2026-09-13 19:41:46.678,1789339306.6782708,123
2026-09-13 19:41:46.685,1789339306.6859632,72
2026-09-13 19:41:46.693,1789339306.6936555,21
2026-09-13 19:41:46.701,1789339306.7013478,-29
2026-09-13 19:41:46.709,1789339306.7090402,-63
2026-09-13 19:41:46.716,1789339306.7167325,-80
2026-09-13 19:41:46.724,1789339306.7244248,-89
2026-09-13 19:41:46.732,1789339306.732117,-89
2026-09-13 19:41:46.739,1789339306.7398093,-84
2026-09-13 19:41:46.747,1789339306.7475016,-84
2026-09-13 19:41:46.755,1789339306.755194,-80
2026-09-13 19:41:46.762,1789339306.7628863,-67
2026-09-13 19:41:46.770,1789339306.7705786,-58
2026-09-13 19:41:46.778,1789339306.778271,-60
2026-09-13 19:41:46.785,1789339306.7859633,-55
2026-09-13 19:41:46.793,1789339306.7936554,-43
2026-09-13 19:41:46.801,1789339306.8013477,-36
2026-09-13 19:41:46.809,1789339306.80904,-33
2026-09-13 19:41:46.816,1789339306.8167324,-26
2026-09-13 19:41:46.824,1789339306.8244247,-26
2026-09-13 19:41:46.832,1789339306.832117,-21
2026-09-13 19:41:46.839,1789339306.8398094,-12
2026-09-13 19:41:46.847,1789339306.8475018,-7
2026-09-13 19:41:46.855,1789339306.8551939,-16
2026-09-13 19:41:46.862,1789339306.8628862,-16
2026-09-13 19:41:46.870,1789339306.8705785,-9
2026-09-13 19:41:46.878,1789339306.8782709,-12
2026-09-13 19:41:46.885,1789339306.8859632,-14
2026-09-13 19:41:46.893,1789339306.8936555,-7
2026-09-13 19:41:46.901,1789339306.9013479,-7
2026-09-13 19:41:46.909,1789339306.9090402,-9
2026-09-13 19:41:46.916,1789339306.9167325,-2
2026-09-13 19:41:46.924,1789339306.9244246,2
2026-09-13 19:41:46.932,1789339306.932117,2
2026-09-13 19:41:46.939,1789339306.9398093,0
2026-09-13 19:41:46.946,1789339306.9469705,2
2026-09-13 19:41:46.954,1789339306.9546628,2
2026-09-13 19:41:46.962,1789339306.9623551,2
2026-09-13 19:41:46.970,1789339306.9700475,2
2026-09-13 19:41:46.977,1789339306.9777398,9
2026-09-13 19:41:46.985,1789339306.985432,14
2026-09-13 19:41:46.993,1789339306.9931242,19
2026-09-13 19:41:47.000,1789339307.0008166,16
2026-09-13 19:41:47.008,1789339307.008509,7
2026-09-13 19:41:47.016,1789339307.0162013,14
2026-09-13 19:41:47.023,1789339307.0238936,29
2026-09-13 19:41:47.031,1789339307.031586,26
2026-09-13 19:41:47.039,1789339307.0392783,21
2026-09-13 19:41:47.046,1789339307.0469704,24
2026-09-13 19:41:47.054,1789339307.0546627,21
2026-09-13 19:41:47.062,1789339307.062355,29
2026-09-13 19:41:47.070,1789339307.0700474,41
2026-09-13 19:41:47.077,1789339307.0777397,36
2026-09-13 19:41:47.085,1789339307.085432,31
2026-09-13 19:41:47.093,1789339307.0931244,36
2026-09-13 19:41:47.100,1789339307.1008167,48
2026-09-13 19:41:47.108,1789339307.1085088,63
2026-09-13 19:41:47.116,1789339307.1162012,80
2026-09-13 19:41:47.123,1789339307.1238935,99
2026-09-13 19:41:47.131,1789339307.1315858,99
2026-09-13 19:41:47.139,1789339307.1392782,82
2026-09-13 19:41:47.146,1789339307.1469705,80
2026-09-13 19:41:47.154,1789339307.1546628,77
2026-09-13 19:41:47.162,1789339307.1623552,53
2026-09-13 19:41:47.170,1789339307.1700473,31
2026-09-13 19:41:47.177,1789339307.1777396,31
2026-09-13 19:41:47.185,1789339307.185432,36
2026-09-13 19:41:47.193,1789339307.1931243,33
2026-09-13 19:41:47.200,1789339307.2008166,33
2026-09-13 19:41:47.208,1789339307.208509,36
2026-09-13 19:41:47.216,1789339307.2162013,41
2026-09-13 19:41:47.223,1789339307.2238936,41
2026-09-13 19:41:47.231,1789339307.2315857,33
2026-09-13 19:41:47.239,1789339307.239278,29
2026-09-13 19:41:47.246,1789339307.2469704,80
2026-09-13 19:41:47.254,1789339307.2546628,257
2026-09-13 19:41:47.262,1789339307.262355,567
2026-09-13 19:41:47.270,1789339307.2700474,945
2026-09-13 19:41:47.277,1789339307.2777398,1054
2026-09-13 19:41:47.285,1789339307.285432,463
2026-09-13 19:41:47.293,1789339307.2931242,-261
2026-09-13 19:41:47.300,1789339307.3008165,-249
2026-09-13 19:41:47.308,1789339307.3085089,26
2026-09-13 19:41:47.316,1789339307.3162012,-26
2026-09-13 19:41:47.323,1789339307.3238935,-80
2026-09-13 19:41:47.331,1789339307.331586,-2
2026-09-13 19:41:47.339,1789339307.3392782,0
2026-09-13 19:41:47.346,1789339307.3469706,-26
2026-09-13 19:41:47.354,1789339307.3546627,0
2026-09-13 19:41:47.362,1789339307.362355,14
2026-09-13 19:41:47.370,1789339307.3700473,0
2026-09-13 19:41:47.377,1789339307.3777397,9
2026-09-13 19:41:47.385,1789339307.385432,36
2026-09-13 19:41:47.393,1789339307.3931243,41
2026-09-13 19:41:47.400,1789339307.4008167,43
2026-09-13 19:41:47.408,1789339307.408509,55
2026-09-13 19:41:47.416,1789339307.416201,65
2026-09-13 19:41:47.423,1789339307.4238935,77
2026-09-13 19:41:47.431,1789339307.4315858,87
2026-09-13 19:41:47.439,1789339307.4392781,87
2026-09-13 19:41:47.446,1789339307.4469705,106
2026-09-13 19:41:47.454,1789339307.4546628,140
2026-09-13 19:41:47.462,1789339307.4623551,152
2026-09-13 19:41:47.470,1789339307.4700475,162
2026-09-13 19:41:47.477,1789339307.4777398,189
2026-09-13 19:41:47.485,1789339307.485432,227
2026-09-13 19:41:47.493,1789339307.4931242,261
2026-09-13 19:41:47.500,1789339307.5008166,274
2026-09-13 19:41:47.507,1789339307.5079472,274
2026-09-13 19:41:47.515,1789339307.5156395,291
2026-09-13 19:41:47.523,1789339307.5233319,295
2026-09-13 19:41:47.531,1789339307.5310242,259
2026-09-13 19:41:47.538,1789339307.5387166,201
2026-09-13 19:41:47.546,1789339307.5464087,147
2026-09-13 19:41:47.554,1789339307.554101,89
2026-09-13 19:41:47.561,1789339307.5617933,26
2026-09-13 19:41:47.569,1789339307.5694857,-21
2026-09-13 19:41:47.577,1789339307.577178,-58
2026-09-13 19:41:47.584,1789339307.5848703,-77
2026-09-13 19:41:47.592,1789339307.5925627,-89
2026-09-13 19:41:47.600,1789339307.600255,-92
2026-09-13 19:41:47.607,1789339307.607947,-84
2026-09-13 19:41:47.615,1789339307.6156394,-84
2026-09-13 19:41:47.623,1789339307.6233318,-77
2026-09-13 19:41:47.631,1789339307.6310241,-63
2026-09-13 19:41:47.638,1789339307.6387165,-58
2026-09-13 19:41:47.646,1789339307.6464088,-50
2026-09-13 19:41:47.654,1789339307.6541011,-26
2026-09-13 19:41:47.661,1789339307.6617935,-21
2026-09-13 19:41:47.669,1789339307.6694856,-36
2026-09-13 19:41:47.677,1789339307.677178,-36
2026-09-13 19:41:47.684,1789339307.6848702,-16
2026-09-13 19:41:47.692,1789339307.6925626,-14
2026-09-13 19:41:47.700,1789339307.700255,-19
2026-09-13 19:41:47.707,1789339307.7079473,-7
2026-09-13 19:41:47.715,1789339307.7156396,0
2026-09-13 19:41:47.723,1789339307.723332,-9
2026-09-13 19:41:47.731,1789339307.731024,-9
2026-09-13 19:41:47.738,1789339307.7387164,4
2026-09-13 19:41:47.746,1789339307.7464087,2
2026-09-13 19:41:47.754,1789339307.754101,-7
2026-09-13 19:41:47.761,1789339307.7617934,2
2026-09-13 19:41:47.769,1789339307.7694857,14
2026-09-13 19:41:47.777,1789339307.777178,12
2026-09-13 19:41:47.784,1789339307.7848704,9
2026-09-13 19:41:47.792,1789339307.7925625,14
2026-09-13 19:41:47.800,1789339307.8002548,19
2026-09-13 19:41:47.807,1789339307.8079472,16
2026-09-13 19:41:47.815,1789339307.8156395,7
2026-09-13 19:41:47.823,1789339307.8233318,14
2026-09-13 19:41:47.831,1789339307.8310242,33
2026-09-13 19:41:47.838,1789339307.8387165,31
2026-09-13 19:41:47.846,1789339307.8464088,21
2026-09-13 19:41:47.854,1789339307.854101,29
2026-09-13 19:41:47.861,1789339307.8617933,41
2026-09-13 19:41:47.869,1789339307.8694856,43
2026-09-13 19:41:47.877,1789339307.877178,33
2026-09-13 19:41:47.884,1789339307.8848703,31
2026-09-13 19:41:47.892,1789339307.8925626,38
2026-09-13 19:41:47.900,1789339307.900255,48
2026-09-13 19:41:47.907,1789339307.9079473,55
2026-09-13 19:41:47.915,1789339307.9156394,58
2026-09-13 19:41:47.923,1789339307.9233317,65
2026-09-13 19:41:47.931,1789339307.931024,89
2026-09-13 19:41:47.938,1789339307.9387164,104
2026-09-13 19:41:47.946,1789339307.9464087,97
2026-09-13 19:41:47.954,1789339307.954101,87
2026-09-13 19:41:47.961,1789339307.9617934,75
2026-09-13 19:41:47.969,1789339307.9694858,60
2026-09-13 19:41:47.977,1789339307.9771779,50
2026-09-13 19:41:47.984,1789339307.9848702,43
2026-09-13 19:41:47.992,1789339307.9925625,31
2026-09-13 19:41:48.000,1789339308.0002549,31
2026-09-13 19:41:48.007,1789339308.0079472,46
2026-09-13 19:41:48.015,1789339308.0156395,50
2026-09-13 19:41:48.023,1789339308.0233319,43
2026-09-13 19:41:48.031,1789339308.0310242,38
2026-09-13 19:41:48.038,1789339308.0387166,43
2026-09-13 19:41:48.046,1789339308.0464087,43
2026-09-13 19:41:48.054,1789339308.054101,87
2026-09-13 19:41:48.061,1789339308.0617933,240
2026-09-13 19:41:48.068,1789339308.0689545,540
2026-09-13 19:41:48.076,1789339308.0766468,936
2026-09-13 19:41:48.084,1789339308.0843391,1076
2026-09-13 19:41:48.092,1789339308.0920315,506
2026-09-13 19:41:48.099,1789339308.0997238,-274
2026-09-13 19:41:48.107,1789339308.107416,-303
2026-09-13 19:41:48.115,1789339308.1151083,38
2026-09-13 19:41:48.122,1789339308.1228006,7
2026-09-13 19:41:48.130,1789339308.130493,-80
2026-09-13 19:41:48.138,1789339308.1381853,9
2026-09-13 19:41:48.145,1789339308.1458776,29
2026-09-13 19:41:48.153,1789339308.15357,0
2026-09-13 19:41:48.161,1789339308.1612623,33
2026-09-13 19:41:48.168,1789339308.1689544,53
2026-09-13 19:41:48.176,1789339308.1766467,41
2026-09-13 19:41:48.184,1789339308.184339,60
2026-09-13 19:41:48.192,1789339308.1920314,87
2026-09-13 19:41:48.199,1789339308.1997237,80
2026-09-13 19:41:48.207,1789339308.207416,77
2026-09-13 19:41:48.215,1789339308.2151084,89
2026-09-13 19:41:48.222,1789339308.2228007,97
2026-09-13 19:41:48.230,1789339308.2304928,109
2026-09-13 19:41:48.238,1789339308.2381852,116
2026-09-13 19:41:48.245,1789339308.2458775,135
2026-09-13 19:41:48.253,1789339308.2535698,164
2026-09-13 19:41:48.261,1789339308.2612622,177
2026-09-13 19:41:48.268,1789339308.2689545,189
2026-09-13 19:41:48.276,1789339308.2766469,225
2026-09-13 19:41:48.284,1789339308.2843392,259
2026-09-13 19:41:48.292,1789339308.2920313,283
2026-09-13 19:41:48.299,1789339308.2997236,312
2026-09-13 19:41:48.307,1789339308.307416,341
2026-09-13 19:41:48.315,1789339308.3151083,351
2026-09-13 19:41:48.322,1789339308.3228006,351
2026-09-13 19:41:48.330,1789339308.330493,339
2026-09-13 19:41:48.338,1789339308.3381853,305
2026-09-13 19:41:48.345,1789339308.3458776,247
2026-09-13 19:41:48.353,1789339308.3535697,177
2026-09-13 19:41:48.361,1789339308.361262,104
2026-09-13 19:41:48.368,1789339308.3689544,38
2026-09-13 19:41:48.376,1789339308.3766468,-12
2026-09-13 19:41:48.384,1789339308.384339,-46
2026-09-13 19:41:48.392,1789339308.3920314,-63
2026-09-13 19:41:48.399,1789339308.3997238,-65
2026-09-13 19:41:48.407,1789339308.407416,-65
2026-09-13 19:41:48.415,1789339308.4151082,-67
2026-09-13 19:41:48.422,1789339308.4228005,-60
2026-09-13 19:41:48.430,1789339308.4304929,-55
2026-09-13 19:41:48.438,1789339308.4381852,-53
2026-09-13 19:41:48.445,1789339308.4458776,-38
2026-09-13 19:41:48.453,1789339308.45357,-21
2026-09-13 19:41:48.461,1789339308.4612622,-14
2026-09-13 19:41:48.468,1789339308.4689546,-12
2026-09-13 19:41:48.476,1789339308.4766467,-9
2026-09-13 19:41:48.484,1789339308.484339,-12
2026-09-13 19:41:48.492,1789339308.4920313,-4
2026-09-13 19:41:48.499,1789339308.4997237,2
2026-09-13 19:41:48.507,1789339308.507416,4
2026-09-13 19:41:48.515,1789339308.5151083,9
2026-09-13 19:41:48.522,1789339308.5228007,7
2026-09-13 19:41:48.530,1789339308.530493,0
2026-09-13 19:41:48.538,1789339308.5381851,4
2026-09-13 19:41:48.545,1789339308.5458775,9
2026-09-13 19:41:48.553,1789339308.5535698,7
2026-09-13 19:41:48.561,1789339308.5612621,7
2026-09-13 19:41:48.568,1789339308.5689545,7
2026-09-13 19:41:48.576,1789339308.5766468,7
2026-09-13 19:41:48.584,1789339308.5843391,12
2026-09-13 19:41:48.592,1789339308.5920315,14
2026-09-13 19:41:48.599,1789339308.5997238,16
2026-09-13 19:41:48.607,1789339308.607416,12
2026-09-13 19:41:48.615,1789339308.6151083,2
2026-09-13 19:41:48.622,1789339308.6228006,2
2026-09-13 19:41:48.629,1789339308.6299314,12
2026-09-13 19:41:48.637,1789339308.6376238,19
2026-09-13 19:41:48.645,1789339308.6453161,14
2026-09-13 19:41:48.653,1789339308.6530085,14
2026-09-13 19:41:48.660,1789339308.6607008,14
2026-09-13 19:41:48.668,1789339308.668393,12
2026-09-13 19:41:48.676,1789339308.6760852,26
2026-09-13 19:41:48.683,1789339308.6837776,43
2026-09-13 19:41:48.691,1789339308.69147,53
2026-09-13 19:41:48.699,1789339308.6991622,70
2026-09-13 19:41:48.706,1789339308.7068546,80
2026-09-13 19:41:48.714,1789339308.714547,58
2026-09-13 19:41:48.722,1789339308.7222393,46
2026-09-13 19:41:48.729,1789339308.7299314,55
2026-09-13 19:41:48.737,1789339308.7376237,46
2026-09-13 19:41:48.745,1789339308.745316,16
2026-09-13 19:41:48.753,1789339308.7530084,9
2026-09-13 19:41:48.760,1789339308.7607007,16
2026-09-13 19:41:48.768,1789339308.768393,14
2026-09-13 19:41:48.776,1789339308.7760854,14
2026-09-13 19:41:48.783,1789339308.7837777,21
2026-09-13 19:41:48.791,1789339308.7914698,29
2026-09-13 19:41:48.799,1789339308.7991621,29
2026-09-13 19:41:48.806,1789339308.8068545,21
2026-09-13 19:41:48.814,1789339308.8145468,19
2026-09-13 19:41:48.822,1789339308.8222392,70
2026-09-13 19:41:48.829,1789339308.8299315,252
2026-09-13 19:41:48.837,1789339308.8376238,569
2026-09-13 19:41:48.845,1789339308.8453162,928
2026-09-13 19:41:48.853,1789339308.8530083,989
2026-09-13 19:41:48.860,1789339308.8607006,392
2026-09-13 19:41:48.868,1789339308.868393,-278
2026-09-13 19:41:48.876,1789339308.8760853,-240
2026-09-13 19:41:48.883,1789339308.8837776,21
2026-09-13 19:41:48.891,1789339308.89147,-43
2026-09-13 19:41:48.899,1789339308.8991623,-84
2026-09-13 19:41:48.906,1789339308.9068546,-4
2026-09-13 19:41:48.914,1789339308.9145467,-14
2026-09-13 19:41:48.922,1789339308.922239,-43
2026-09-13 19:41:48.929,1789339308.9299314,-12
2026-09-13 19:41:48.937,1789339308.9376237,7
2026-09-13 19:41:48.945,1789339308.945316,0
2026-09-13 19:41:48.953,1789339308.9530084,7
2026-09-13 19:41:48.960,1789339308.9607008,21
2026-09-13 19:41:48.968,1789339308.968393,29
2026-09-13 19:41:48.976,1789339308.9760852,29
2026-09-13 19:41:48.983,1789339308.9837775,36
2026-09-13 19:41:48.991,1789339308.9914699,50
2026-09-13 19:41:48.999,1789339308.9991622,55
2026-09-13 19:41:49.006,1789339309.0068545,60
2026-09-13 19:41:49.014,1789339309.0145469,80
2026-09-13 19:41:49.022,1789339309.0222392,92
2026-09-13 19:41:49.029,1789339309.0299315,94
2026-09-13 19:41:49.037,1789339309.0376236,113
2026-09-13 19:41:49.045,1789339309.045316,143
2026-09-13 19:41:49.053,1789339309.0530083,162
2026-09-13 19:41:49.060,1789339309.0607007,186
2026-09-13 19:41:49.068,1789339309.068393,215
2026-09-13 19:41:49.076,1789339309.0760853,235
2026-09-13 19:41:49.083,1789339309.0837777,244
2026-09-13 19:41:49.091,1789339309.09147,242
2026-09-13 19:41:49.099,1789339309.099162,230
2026-09-13 19:41:49.106,1789339309.1068544,210
2026-09-13 19:41:49.114,1789339309.1145468,167
2026-09-13 19:41:49.122,1789339309.122239,99
2026-09-13 19:41:49.129,1789339309.1299314,41
2026-09-13 19:41:49.137,1789339309.1376238,0
2026-09-13 19:41:49.145,1789339309.1453161,-46
2026-09-13 19:41:49.153,1789339309.1530085,-77
2026-09-13 19:41:49.160,1789339309.1607008,-82
2026-09-13 19:41:49.168,1789339309.168393,-92
2026-09-13 19:41:49.176,1789339309.1760852,-97
2026-09-13 19:41:49.183,1789339309.1837776,-92
2026-09-13 19:41:49.190,1789339309.1909385,-87
2026-09-13 19:41:49.198,1789339309.1986308,-87
2026-09-13 19:41:49.206,1789339309.2063231,-82
2026-09-13 19:41:49.214,1789339309.2140155,-72
2026-09-13 19:41:49.221,1789339309.2217078,-65
2026-09-13 19:41:49.229,1789339309.2294,-55
2026-09-13 19:41:49.237,1789339309.2370923,-50
2026-09-13 19:41:49.244,1789339309.2447846,-46
2026-09-13 19:41:49.252,1789339309.252477,-38
2026-09-13 19:41:49.260,1789339309.2601693,-33
2026-09-13 19:41:49.267,1789339309.2678616,-29
2026-09-13 19:41:49.275,1789339309.275554,-24
2026-09-13 19:41:49.283,1789339309.2832463,-24
2026-09-13 19:41:49.290,1789339309.2909384,-21
2026-09-13 19:41:49.298,1789339309.2986307,-14
2026-09-13 19:41:49.306,1789339309.306323,-21
2026-09-13 19:41:49.314,1789339309.3140154,-29
2026-09-13 19:41:49.321,1789339309.3217077,-21
2026-09-13 19:41:49.329,1789339309.3294,-16
2026-09-13 19:41:49.337,1789339309.3370924,-16
2026-09-13 19:41:49.344,1789339309.3447847,-14
2026-09-13 19:41:49.352,1789339309.3524768,-14
2026-09-13 19:41:49.360,1789339309.3601692,-14
2026-09-13 19:41:49.367,1789339309.3678615,-7
2026-09-13 19:41:49.375,1789339309.3755538,-7
2026-09-13 19:41:49.383,1789339309.3832462,-12
2026-09-13 19:41:49.390,1789339309.3909385,-9
2026-09-13 19:41:49.398,1789339309.3986309,-7
2026-09-13 19:41:49.406,1789339309.4063232,-7
2026-09-13 19:41:49.414,1789339309.4140153,-9
2026-09-13 19:41:49.421,1789339309.4217076,-4
2026-09-13 19:41:49.429,1789339309.4294,-4
2026-09-13 19:41:49.437,1789339309.4370923,-4
2026-09-13 19:41:49.444,1789339309.4447846,0
2026-09-13 19:41:49.452,1789339309.452477,4
2026-09-13 19:41:49.460,1789339309.4601693,9
2026-09-13 19:41:49.467,1789339309.4678617,7
2026-09-13 19:41:49.475,1789339309.4755538,2
2026-09-13 19:41:49.483,1789339309.483246,7
2026-09-13 19:41:49.490,1789339309.4909384,9
2026-09-13 19:41:49.498,1789339309.4986308,9
2026-09-13 19:41:49.506,1789339309.506323,24
2026-09-13 19:41:49.514,1789339309.5140154,43
2026-09-13 19:41:49.521,1789339309.5217078,53
2026-09-13 19:41:49.529,1789339309.5294,58
2026-09-13 19:41:49.537,1789339309.5370922,50
2026-09-13 19:41:49.544,1789339309.5447845,41
2026-09-13 19:41:49.552,1789339309.552477,48
2026-09-13 19:41:49.560,1789339309.5601692,50
2026-09-13 19:41:49.567,1789339309.5678616,19
2026-09-13 19:41:49.575,1789339309.575554,-2
2026-09-13 19:41:49.583,1789339309.5832462,2
2026-09-13 19:41:49.590,1789339309.5909386,4
2026-09-13 19:41:49.598,1789339309.5986307,2
2026-09-13 19:41:49.606,1789339309.606323,2
2026-09-13 19:41:49.614,1789339309.6140153,0
2026-09-13 19:41:49.621,1789339309.6217077,2
2026-09-13 19:41:49.629,1789339309.6294,9
2026-09-13 19:41:49.637,1789339309.6370924,4
2026-09-13 19:41:49.644,1789339309.6447847,16
2026-09-13 19:41:49.652,1789339309.652477,109
2026-09-13 19:41:49.660,1789339309.6601691,322
2026-09-13 19:41:49.667,1789339309.6678615,645
2026-09-13 19:41:49.675,1789339309.6755538,987
2026-09-13 19:41:49.683,1789339309.6832461,880
2026-09-13 19:41:49.690,1789339309.6909385,135
2026-09-13 19:41:49.698,1789339309.6986308,-346
2026-09-13 19:41:49.706,1789339309.7063231,-133
2026-09-13 19:41:49.714,1789339309.7140155,14
2026-09-13 19:41:49.721,1789339309.7217078,-92
2026-09-13 19:41:49.729,1789339309.7294,-75
2026-09-13 19:41:49.737,1789339309.7370923,-16
2026-09-13 19:41:49.744,1789339309.7447846,-43
2026-09-13 19:41:49.751,1789339309.751946,-46
2026-09-13 19:41:49.759,1789339309.7596383,-16
2026-09-13 19:41:49.767,1789339309.7673306,-14
2026-09-13 19:41:49.775,1789339309.775023,-9
2026-09-13 19:41:49.782,1789339309.7827153,4
2026-09-13 19:41:49.790,1789339309.7904074,4
2026-09-13 19:41:49.798,1789339309.7980998,9
2026-09-13 19:41:49.805,1789339309.805792,29
2026-09-13 19:41:49.813,1789339309.8134844,43
2026-09-13 19:41:49.821,1789339309.8211768,41
2026-09-13 19:41:49.828,1789339309.828869,48
2026-09-13 19:41:49.836,1789339309.8365614,65
2026-09-13 19:41:49.844,1789339309.8442538,75
2026-09-13 19:41:49.851,1789339309.8519459,84
2026-09-13 19:41:49.859,1789339309.8596382,101
2026-09-13 19:41:49.867,1789339309.8673306,121
2026-09-13 19:41:49.875,1789339309.875023,143
2026-09-13 19:41:49.882,1789339309.8827152,160
2026-09-13 19:41:49.890,1789339309.8904076,186
2026-09-13 19:41:49.898,1789339309.8981,215
2026-09-13 19:41:49.905,1789339309.9057922,225
2026-09-13 19:41:49.913,1789339309.9134843,230
2026-09-13 19:41:49.921,1789339309.9211767,232
2026-09-13 19:41:49.928,1789339309.928869,225
2026-09-13 19:41:49.936,1789339309.9365613,201
2026-09-13 19:41:49.944,1789339309.9442537,155
2026-09-13 19:41:49.951,1789339309.951946,94
2026-09-13 19:41:49.959,1789339309.9596384,48
2026-09-13 19:41:49.967,1789339309.9673307,2
2026-09-13 19:41:49.975,1789339309.9750228,-43
2026-09-13 19:41:49.982,1789339309.9827151,-63
2026-09-13 19:41:49.990,1789339309.9904075,-65
2026-09-13 19:41:49.998,1789339309.9980998,-75
2026-09-13 19:41:50.005,1789339310.0057921,-82
2026-09-13 19:41:50.013,1789339310.0134845,-72
2026-09-13 19:41:50.021,1789339310.0211768,-63
2026-09-13 19:41:50.028,1789339310.0288692,-63
2026-09-13 19:41:50.036,1789339310.0365613,-60
2026-09-13 19:41:50.044,1789339310.0442536,-55
2026-09-13 19:41:50.051,1789339310.051946,-46
2026-09-13 19:41:50.059,1789339310.0596383,-26
2026-09-13 19:41:50.067,1789339310.0673306,-21
2026-09-13 19:41:50.075,1789339310.075023,-24
2026-09-13 19:41:50.082,1789339310.0827153,-19
2026-09-13 19:41:50.090,1789339310.0904076,-9
2026-09-13 19:41:50.098,1789339310.0980997,-7
2026-09-13 19:41:50.105,1789339310.105792,-9
2026-09-13 19:41:50.113,1789339310.1134844,-12
2026-09-13 19:41:50.121,1789339310.1211767,-9
2026-09-13 19:41:50.128,1789339310.128869,-4
2026-09-13 19:41:50.136,1789339310.1365614,-2
2026-09-13 19:41:50.144,1789339310.1442537,-4
2026-09-13 19:41:50.151,1789339310.151946,0
2026-09-13 19:41:50.159,1789339310.1596382,12
2026-09-13 19:41:50.167,1789339310.1673305,12
2026-09-13 19:41:50.175,1789339310.1750228,4
2026-09-13 19:41:50.182,1789339310.1827152,14
2026-09-13 19:41:50.190,1789339310.1904075,26
2026-09-13 19:41:50.198,1789339310.1980999,16
2026-09-13 19:41:50.205,1789339310.2057922,9
2026-09-13 19:41:50.213,1789339310.2134845,16
2026-09-13 19:41:50.221,1789339310.2211766,21
2026-09-13 19:41:50.228,1789339310.228869,26
2026-09-13 19:41:50.236,1789339310.2365613,29
2026-09-13 19:41:50.244,1789339310.2442536,31
2026-09-13 19:41:50.251,1789339310.251946,36
2026-09-13 19:41:50.259,1789339310.2596383,38
2026-09-13 19:41:50.267,1789339310.2673306,41
2026-09-13 19:41:50.275,1789339310.275023,43
2026-09-13 19:41:50.282,1789339310.2827153,46
2026-09-13 19:41:50.290,1789339310.2904074,55
2026-09-13 19:41:50.298,1789339310.2980998,50
2026-09-13 19:41:50.305,1789339310.305792,43
2026-09-13 19:41:50.312,1789339310.312933,50
2026-09-13 19:41:50.320,1789339310.3206253,60
2026-09-13 19:41:50.328,1789339310.3283176,58
2026-09-13 19:41:50.336,1789339310.33601,55
2026-09-13 19:41:50.343,1789339310.3437023,46
2026-09-13 19:41:50.351,1789339310.3513944,41
2026-09-13 19:41:50.359,1789339310.3590868,48
2026-09-13 19:41:50.366,1789339310.366779,72
2026-09-13 19:41:50.374,1789339310.3744714,92
2026-09-13 19:41:50.382,1789339310.3821638,101
2026-09-13 19:41:50.389,1789339310.389856,99
2026-09-13 19:41:50.397,1789339310.3975484,94
2026-09-13 19:41:50.405,1789339310.4052408,89
2026-09-13 19:41:50.412,1789339310.4129329,87
2026-09-13 19:41:50.420,1789339310.4206252,75
2026-09-13 19:41:50.428,1789339310.4283175,50
2026-09-13 19:41:50.436,1789339310.43601,33
2026-09-13 19:41:50.443,1789339310.4437022,29
2026-09-13 19:41:50.451,1789339310.4513946,26
2026-09-13 19:41:50.459,1789339310.459087,29
2026-09-13 19:41:50.466,1789339310.4667792,38
2026-09-13 19:41:50.474,1789339310.4744713,36
2026-09-13 19:41:50.482,1789339310.4821637,29
2026-09-13 19:41:50.489,1789339310.489856,33
2026-09-13 19:41:50.497,1789339310.4975483,38
2026-09-13 19:41:50.505,1789339310.5052407,65
2026-09-13 19:41:50.512,1789339310.512933,184
2026-09-13 19:41:50.520,1789339310.5206254,448
2026-09-13 19:41:50.528,1789339310.5283177,826
2026-09-13 19:41:50.536,1789339310.5360098,1067
2026-09-13 19:41:50.543,1789339310.5437021,671
2026-09-13 19:41:50.551,1789339310.5513945,-138
2026-09-13 19:41:50.559,1789339310.5590868,-339
2026-09-13 19:41:50.566,1789339310.5667791,-24
2026-09-13 19:41:50.574,1789339310.5744715,7
2026-09-13 19:41:50.582,1789339310.5821638,-77
2026-09-13 19:41:50.589,1789339310.5898561,-2
2026-09-13 19:41:50.597,1789339310.5975482,24
2026-09-13 19:41:50.605,1789339310.6052406,-16
2026-09-13 19:41:50.612,1789339310.612933,-4
2026-09-13 19:41:50.620,1789339310.6206253,24
2026-09-13 19:41:50.628,1789339310.6283176,21
2026-09-13 19:41:50.636,1789339310.63601,26
2026-09-13 19:41:50.643,1789339310.6437023,55
2026-09-13 19:41:50.651,1789339310.6513946,65
2026-09-13 19:41:50.659,1789339310.6590867,58
2026-09-13 19:41:50.666,1789339310.666779,75
2026-09-13 19:41:50.674,1789339310.6744714,87
2026-09-13 19:41:50.682,1789339310.6821637,84
2026-09-13 19:41:50.689,1789339310.689856,97
2026-09-13 19:41:50.697,1789339310.6975484,118
2026-09-13 19:41:50.705,1789339310.7052407,128
2026-09-13 19:41:50.712,1789339310.712933,140
2026-09-13 19:41:50.720,1789339310.7206252,162
2026-09-13 19:41:50.728,1789339310.7283175,194
2026-09-13 19:41:50.736,1789339310.7360098,215
2026-09-13 19:41:50.743,1789339310.7437022,235
2026-09-13 19:41:50.751,1789339310.7513945,266
2026-09-13 19:41:50.759,1789339310.7590868,293
2026-09-13 19:41:50.766,1789339310.7667792,303
2026-09-13 19:41:50.774,1789339310.7744715,303
2026-09-13 19:41:50.782,1789339310.7821636,300
2026-09-13 19:41:50.789,1789339310.789856,286
2026-09-13 19:41:50.797,1789339310.7975483,244
2026-09-13 19:41:50.805,1789339310.8052406,179
2026-09-13 19:41:50.812,1789339310.812933,113
2026-09-13 19:41:50.820,1789339310.8206253,55
2026-09-13 19:41:50.828,1789339310.8283176,7
2026-09-13 19:41:50.836,1789339310.83601,-36
2026-09-13 19:41:50.843,1789339310.8437023,-63
2026-09-13 19:41:50.851,1789339310.8513944,-67
2026-09-13 19:41:50.859,1789339310.8590868,-72
2026-09-13 19:41:50.866,1789339310.866779,-80
2026-09-13 19:41:50.873,1789339310.8739302,-77
2026-09-13 19:41:50.881,1789339310.8816226,-58
2026-09-13 19:41:50.889,1789339310.889315,-50
2026-09-13 19:41:50.897,1789339310.8970072,-58
2026-09-13 19:41:50.904,1789339310.9046996,-41
2026-09-13 19:41:50.912,1789339310.9123917,-19
2026-09-13 19:41:50.920,1789339310.920084,-14
2026-09-13 19:41:50.927,1789339310.9277763,-16
2026-09-13 19:41:50.935,1789339310.9354687,-9
2026-09-13 19:41:50.943,1789339310.943161,0
2026-09-13 19:41:50.950,1789339310.9508533,-7
2026-09-13 19:41:50.958,1789339310.9585457,-7
2026-09-13 19:41:50.966,1789339310.966238,19
2026-09-13 19:41:50.973,1789339310.9739301,19
2026-09-13 19:41:50.981,1789339310.9816225,2
2026-09-13 19:41:50.989,1789339310.9893148,7
2026-09-13 19:41:50.997,1789339310.9970071,16
2026-09-13 19:41:51.004,1789339311.0046995,14
2026-09-13 19:41:51.012,1789339311.0123918,19
2026-09-13 19:41:51.020,1789339311.0200841,21
2026-09-13 19:41:51.027,1789339311.0277765,19
2026-09-13 19:41:51.035,1789339311.0354686,24
2026-09-13 19:41:51.043,1789339311.043161,31
2026-09-13 19:41:51.050,1789339311.0508533,29
2026-09-13 19:41:51.058,1789339311.0585456,24
2026-09-13 19:41:51.066,1789339311.066238,21
2026-09-13 19:41:51.073,1789339311.0739303,26
2026-09-13 19:41:51.081,1789339311.0816226,33
2026-09-13 19:41:51.089,1789339311.089315,41
2026-09-13 19:41:51.097,1789339311.097007,43
2026-09-13 19:41:51.104,1789339311.1046994,33
2026-09-13 19:41:51.112,1789339311.1123917,33
2026-09-13 19:41:51.120,1789339311.120084,41
2026-09-13 19:41:51.127,1789339311.1277764,38
2026-09-13 19:41:51.135,1789339311.1354687,38
2026-09-13 19:41:51.143,1789339311.143161,43
2026-09-13 19:41:51.150,1789339311.1508534,53
2026-09-13 19:41:51.158,1789339311.1585455,67
2026-09-13 19:41:51.166,1789339311.1662378,87
2026-09-13 19:41:51.173,1789339311.1739302,106
2026-09-13 19:41:51.181,1789339311.1816225,109
2026-09-13 19:41:51.189,1789339311.1893148,89
2026-09-13 19:41:51.197,1789339311.1970072,80
2026-09-13 19:41:51.204,1789339311.2046995,82
2026-09-13 19:41:51.212,1789339311.2123919,67
2026-09-13 19:41:51.220,1789339311.220084,48
2026-09-13 19:41:51.227,1789339311.2277763,36
2026-09-13 19:41:51.235,1789339311.2354686,38
2026-09-13 19:41:51.243,1789339311.243161,50
2026-09-13 19:41:51.250,1789339311.2508533,55
2026-09-13 19:41:51.258,1789339311.2585456,48
2026-09-13 19:41:51.266,1789339311.266238,50
2026-09-13 19:41:51.273,1789339311.2739303,60
2026-09-13 19:41:51.281,1789339311.2816224,58
2026-09-13 19:41:51.289,1789339311.2893147,58
2026-09-13 19:41:51.297,1789339311.297007,113
2026-09-13 19:41:51.304,1789339311.3046994,288
2026-09-13 19:41:51.312,1789339311.3123918,599
2026-09-13 19:41:51.320,1789339311.320084,965
2026-09-13 19:41:51.327,1789339311.3277764,1025
2026-09-13 19:41:51.335,1789339311.3354688,407
2026-09-13 19:41:51.343,1789339311.3431609,-288
2026-09-13 19:41:51.350,1789339311.3508532,-237
2026-09-13 19:41:51.358,1789339311.3585455,53
2026-09-13 19:41:51.366,1789339311.3662379,2
2026-09-13 19:41:51.373,1789339311.3739302,-38
2026-09-13 19:41:51.381,1789339311.3816226,48
2026-09-13 19:41:51.389,1789339311.389315,41
2026-09-13 19:41:51.397,1789339311.3970072,12
2026-09-13 19:41:51.404,1789339311.4046996,46
2026-09-13 19:41:51.412,1789339311.4123917,60
2026-09-13 19:41:51.420,1789339311.420084,53
2026-09-13 19:41:51.427,1789339311.4277763,75
2026-09-13 19:41:51.434,1789339311.4349372,84
2026-09-13 19:41:51.442,1789339311.4426296,77
2026-09-13 19:41:51.450,1789339311.450322,89
2026-09-13 19:41:51.458,1789339311.4580142,104
2026-09-13 19:41:51.465,1789339311.4657066,106
2026-09-13 19:41:51.473,1789339311.4733987,116
2026-09-13 19:41:51.481,1789339311.481091,138
2026-09-13 19:41:51.488,1789339311.4887834,145
2026-09-13 19:41:51.496,1789339311.4964757,140
2026-09-13 19:41:51.504,1789339311.504168,162
2026-09-13 19:41:51.511,1789339311.5118604,198
2026-09-13 19:41:51.519,1789339311.5195527,223
2026-09-13 19:41:51.527,1789339311.527245,240
2026-09-13 19:41:51.534,1789339311.5349371,259
2026-09-13 19:41:51.542,1789339311.5426295,283
2026-09-13 19:41:51.550,1789339311.5503218,305
2026-09-13 19:41:51.558,1789339311.5580142,317
2026-09-13 19:41:51.565,1789339311.5657065,320
2026-09-13 19:41:51.573,1789339311.5733988,305
2026-09-13 19:41:51.581,1789339311.5810912,269
2026-09-13 19:41:51.588,1789339311.5887835,213
2026-09-13 19:41:51.596,1789339311.5964756,152
2026-09-13 19:41:51.604,1789339311.604168,89
2026-09-13 19:41:51.611,1789339311.6118603,31
2026-09-13 19:41:51.619,1789339311.6195526,-16
2026-09-13 19:41:51.627,1789339311.627245,-50
2026-09-13 19:41:51.634,1789339311.6349373,-65
2026-09-13 19:41:51.642,1789339311.6426296,-70
2026-09-13 19:41:51.650,1789339311.650322,-80
2026-09-13 19:41:51.658,1789339311.658014,-82
2026-09-13 19:41:51.665,1789339311.6657064,-75
2026-09-13 19:41:51.673,1789339311.6733987,-67
2026-09-13 19:41:51.681,1789339311.681091,-63
2026-09-13 19:41:51.688,1789339311.6887834,-55
2026-09-13 19:41:51.696,1789339311.6964757,-43
2026-09-13 19:41:51.704,1789339311.704168,-31
2026-09-13 19:41:51.711,1789339311.7118604,-24
2026-09-13 19:41:51.719,1789339311.7195525,-24
2026-09-13 19:41:51.727,1789339311.7272449,-19
2026-09-13 19:41:51.734,1789339311.7349372,-14
2026-09-13 19:41:51.742,1789339311.7426295,-9
2026-09-13 19:41:51.750,1789339311.7503219,-7
2026-09-13 19:41:51.758,1789339311.7580142,-4
2026-09-13 19:41:51.765,1789339311.7657065,-7
2026-09-13 19:41:51.773,1789339311.7733989,-12
2026-09-13 19:41:51.781,1789339311.781091,-7
2026-09-13 19:41:51.788,1789339311.7887833,0
2026-09-13 19:41:51.796,1789339311.7964756,2
2026-09-13 19:41:51.804,1789339311.804168,2
2026-09-13 19:41:51.811,1789339311.8118603,2
2026-09-13 19:41:51.819,1789339311.8195527,-2
2026-09-13 19:41:51.827,1789339311.827245,-2
2026-09-13 19:41:51.834,1789339311.8349373,4
2026-09-13 19:41:51.842,1789339311.8426294,14
2026-09-13 19:41:51.850,1789339311.8503218,9
2026-09-13 19:41:51.858,1789339311.858014,-4
2026-09-13 19:41:51.865,1789339311.8657064,2
2026-09-13 19:41:51.873,1789339311.8733988,12
2026-09-13 19:41:51.881,1789339311.881091,9
2026-09-13 19:41:51.888,1789339311.8887835,12
2026-09-13 19:41:51.896,1789339311.8964758,14
2026-09-13 19:41:51.904,1789339311.904168,12
2026-09-13 19:41:51.911,1789339311.9118602,12
2026-09-13 19:41:51.919,1789339311.9195526,19
2026-09-13 19:41:51.927,1789339311.927245,24
2026-09-13 19:41:51.934,1789339311.9349372,16
2026-09-13 19:41:51.942,1789339311.9426296,16
2026-09-13 19:41:51.950,1789339311.950322,21
2026-09-13 19:41:51.958,1789339311.9580142,21
2026-09-13 19:41:51.965,1789339311.9657066,24
2026-09-13 19:41:51.973,1789339311.9733987,24
2026-09-13 19:41:51.981,1789339311.981091,21
2026-09-13 19:41:51.988,1789339311.9887834,43
2026-09-13 19:41:51.995,1789339311.9959142,70
2026-09-13 19:41:52.003,1789339312.0036066,80
2026-09-13 19:41:52.011,1789339312.011299,72
2026-09-13 19:41:52.018,1789339312.0189912,58
2026-09-13 19:41:52.026,1789339312.0266836,60
2026-09-13 19:41:52.034,1789339312.0343757,60
2026-09-13 19:41:52.042,1789339312.042068,38
2026-09-13 19:41:52.049,1789339312.0497603,24
2026-09-13 19:41:52.057,1789339312.0574527,21
2026-09-13 19:41:52.065,1789339312.065145,9
2026-09-13 19:41:52.072,1789339312.0728374,9
2026-09-13 19:41:52.080,1789339312.0805297,26
2026-09-13 19:41:52.088,1789339312.088222,24
2026-09-13 19:41:52.095,1789339312.0959141,14
2026-09-13 19:41:52.103,1789339312.1036065,24
2026-09-13 19:41:52.111,1789339312.1112988,26
2026-09-13 19:41:52.118,1789339312.1189911,21
2026-09-13 19:41:52.126,1789339312.1266835,82
2026-09-13 19:41:52.134,1789339312.1343758,271
2026-09-13 19:41:52.142,1789339312.1420681,579
2026-09-13 19:41:52.149,1789339312.1497605,962
2026-09-13 19:41:52.157,1789339312.1574526,1037
2026-09-13 19:41:52.165,1789339312.165145,392
2026-09-13 19:41:52.172,1789339312.1728373,-276
2026-09-13 19:41:52.180,1789339312.1805296,-196
2026-09-13 19:41:52.188,1789339312.188222,33
2026-09-13 19:41:52.195,1789339312.1959143,-53
2026-09-13 19:41:52.203,1789339312.2036066,-89
2026-09-13 19:41:52.211,1789339312.211299,-12
2026-09-13 19:41:52.218,1789339312.218991,-16
2026-09-13 19:41:52.226,1789339312.2266834,-31
2026-09-13 19:41:52.234,1789339312.2343757,-4
2026-09-13 19:41:52.242,1789339312.242068,-7
2026-09-13 19:41:52.249,1789339312.2497604,-9
2026-09-13 19:41:52.257,1789339312.2574527,9
2026-09-13 19:41:52.265,1789339312.265145,12
2026-09-13 19:41:52.272,1789339312.2728374,16
2026-09-13 19:41:52.280,1789339312.2805295,33
2026-09-13 19:41:52.288,1789339312.2882218,41
2026-09-13 19:41:52.295,1789339312.2959142,43
2026-09-13 19:41:52.303,1789339312.3036065,58
2026-09-13 19:41:52.311,1789339312.3112988,75
2026-09-13 19:41:52.318,1789339312.3189912,80
2026-09-13 19:41:52.326,1789339312.3266835,82
2026-09-13 19:41:52.334,1789339312.3343759,97
2026-09-13 19:41:52.342,1789339312.342068,116
2026-09-13 19:41:52.349,1789339312.3497603,135
2026-09-13 19:41:52.357,1789339312.3574526,160
2026-09-13 19:41:52.365,1789339312.365145,191
2026-09-13 19:41:52.372,1789339312.3728373,218
2026-09-13 19:41:52.380,1789339312.3805296,235
2026-09-13 19:41:52.388,1789339312.388222,247
2026-09-13 19:41:52.395,1789339312.3959143,254
2026-09-13 19:41:52.403,1789339312.4036064,252
2026-09-13 19:41:52.411,1789339312.4112988,225
2026-09-13 19:41:52.418,1789339312.418991,189
2026-09-13 19:41:52.426,1789339312.4266834,150
2026-09-13 19:41:52.434,1789339312.4343758,94
2026-09-13 19:41:52.442,1789339312.442068,36
2026-09-13 19:41:52.449,1789339312.4497604,-4
2026-09-13 19:41:52.457,1789339312.4574528,-24
2026-09-13 19:41:52.465,1789339312.4651449,-36
2026-09-13 19:41:52.472,1789339312.4728372,-43
2026-09-13 19:41:52.480,1789339312.4805295,-50
2026-09-13 19:41:52.488,1789339312.488222,-55
2026-09-13 19:41:52.495,1789339312.4959142,-46
2026-09-13 19:41:52.503,1789339312.5036066,-38
2026-09-13 19:41:52.511,1789339312.511299,-31
2026-09-13 19:41:52.518,1789339312.5189912,-26
2026-09-13 19:41:52.526,1789339312.5266836,-19
2026-09-13 19:41:52.534,1789339312.5343757,-9
2026-09-13 19:41:52.542,1789339312.542068,-4
2026-09-13 19:41:52.549,1789339312.5497603,0
2026-09-13 19:41:52.556,1789339312.5569215,2
2026-09-13 19:41:52.564,1789339312.5646138,4
2026-09-13 19:41:52.572,1789339312.5723062,16
2026-09-13 19:41:52.579,1789339312.5799985,14
2026-09-13 19:41:52.587,1789339312.5876908,4
2026-09-13 19:41:52.595,1789339312.595383,9
2026-09-13 19:41:52.603,1789339312.6030753,16
2026-09-13 19:41:52.610,1789339312.6107676,12
2026-09-13 19:41:52.618,1789339312.61846,12
2026-09-13 19:41:52.626,1789339312.6261523,16
2026-09-13 19:41:52.633,1789339312.6338446,19
2026-09-13 19:41:52.641,1789339312.641537,14
2026-09-13 19:41:52.649,1789339312.6492293,16
2026-09-13 19:41:52.656,1789339312.6569214,21
2026-09-13 19:41:52.664,1789339312.6646137,24
2026-09-13 19:41:52.672,1789339312.672306,29
2026-09-13 19:41:52.679,1789339312.6799984,29
2026-09-13 19:41:52.687,1789339312.6876907,16
2026-09-13 19:41:52.695,1789339312.695383,21
2026-09-13 19:41:52.703,1789339312.7030754,33
2026-09-13 19:41:52.710,1789339312.7107677,31
2026-09-13 19:41:52.718,1789339312.7184598,29
2026-09-13 19:41:52.726,1789339312.7261522,29
2026-09-13 19:41:52.733,1789339312.7338445,29
2026-09-13 19:41:52.741,1789339312.7415369,33
2026-09-13 19:41:52.749,1789339312.7492292,38
2026-09-13 19:41:52.756,1789339312.7569215,38
2026-09-13 19:41:52.764,1789339312.7646139,38
2026-09-13 19:41:52.772,1789339312.7723062,33
2026-09-13 19:41:52.779,1789339312.7799983,36
2026-09-13 19:41:52.787,1789339312.7876906,38
2026-09-13 19:41:52.795,1789339312.795383,36
2026-09-13 19:41:52.803,1789339312.8030753,31
2026-09-13 19:41:52.810,1789339312.8107677,36
2026-09-13 19:41:52.818,1789339312.81846,46
2026-09-13 19:41:52.826,1789339312.8261523,46
2026-09-13 19:41:52.833,1789339312.8338447,43
2026-09-13 19:41:52.841,1789339312.8415368,41
2026-09-13 19:41:52.849,1789339312.849229,43
2026-09-13 19:41:52.856,1789339312.8569214,46
2026-09-13 19:41:52.864,1789339312.8646138,38
2026-09-13 19:41:52.872,1789339312.872306,26
2026-09-13 19:41:52.879,1789339312.8799984,48
2026-09-13 19:41:52.887,1789339312.8876908,80
2026-09-13 19:41:52.895,1789339312.8953831,92
2026-09-13 19:41:52.903,1789339312.9030752,92
2026-09-13 19:41:52.910,1789339312.9107676,89
2026-09-13 19:41:52.918,1789339312.91846,80
2026-09-13 19:41:52.926,1789339312.9261522,75
2026-09-13 19:41:52.933,1789339312.9338446,72
2026-09-13 19:41:52.941,1789339312.941537,55
2026-09-13 19:41:52.949,1789339312.9492292,26
2026-09-13 19:41:52.956,1789339312.9569216,14
2026-09-13 19:41:52.964,1789339312.9646137,19
2026-09-13 19:41:52.972,1789339312.972306,26
2026-09-13 19:41:52.979,1789339312.9799984,31
2026-09-13 19:41:52.987,1789339312.9876907,31
2026-09-13 19:41:52.995,1789339312.995383,26
2026-09-13 19:41:53.003,1789339313.0030754,29
2026-09-13 19:41:53.010,1789339313.0107677,29
2026-09-13 19:41:53.018,1789339313.01846,36
2026-09-13 19:41:53.026,1789339313.0261521,130
2026-09-13 19:41:53.033,1789339313.0338445,366
2026-09-13 19:41:53.041,1789339313.0415368,703
2026-09-13 19:41:53.049,1789339313.0492291,1016
2026-09-13 19:41:53.056,1789339313.0569215,846
2026-09-13 19:41:53.064,1789339313.0646138,92
2026-09-13 19:41:53.072,1789339313.0723062,-322
2026-09-13 19:41:53.079,1789339313.0799985,-89
2026-09-13 19:41:53.087,1789339313.0876908,26
2026-09-13 19:41:53.095,1789339313.095383,-77
2026-09-13 19:41:53.103,1789339313.1030753,-46
2026-09-13 19:41:53.110,1789339313.1107676,0
2026-09-13 19:41:53.117,1789339313.117944,-41
2026-09-13 19:41:53.125,1789339313.1256363,-36
2026-09-13 19:41:53.133,1789339313.1333287,4
2026-09-13 19:41:53.141,1789339313.141021,7
2026-09-13 19:41:53.148,1789339313.1487134,7
2026-09-13 19:41:53.156,1789339313.1564054,24
2026-09-13 19:41:53.164,1789339313.1640978,26
2026-09-13 19:41:53.171,1789339313.1717901,29
2026-09-13 19:41:53.179,1789339313.1794825,48
2026-09-13 19:41:53.187,1789339313.1871748,60
2026-09-13 19:41:53.194,1789339313.1948671,58
2026-09-13 19:41:53.202,1789339313.2025595,60
2026-09-13 19:41:53.210,1789339313.2102518,72
2026-09-13 19:41:53.217,1789339313.217944,84
2026-09-13 19:41:53.225,1789339313.2256362,92
2026-09-13 19:41:53.233,1789339313.2333286,113
2026-09-13 19:41:53.241,1789339313.241021,140
2026-09-13 19:41:53.248,1789339313.2487133,157
2026-09-13 19:41:53.256,1789339313.2564056,181
2026-09-13 19:41:53.264,1789339313.264098,208
2026-09-13 19:41:53.271,1789339313.2717903,220
2026-09-13 19:41:53.279,1789339313.2794824,237
2026-09-13 19:41:53.287,1789339313.2871747,252
2026-09-13 19:41:53.294,1789339313.294867,244
2026-09-13 19:41:53.302,1789339313.3025594,225
2026-09-13 19:41:53.310,1789339313.3102517,203
2026-09-13 19:41:53.317,1789339313.317944,167
2026-09-13 19:41:53.325,1789339313.3256364,104
2026-09-13 19:41:53.333,1789339313.3333287,38
2026-09-13 19:41:53.341,1789339313.3410208,4
2026-09-13 19:41:53.348,1789339313.3487132,-19
2026-09-13 19:41:53.356,1789339313.3564055,-50
2026-09-13 19:41:53.364,1789339313.3640978,-75
2026-09-13 19:41:53.371,1789339313.3717902,-82
2026-09-13 19:41:53.379,1789339313.3794825,-82
2026-09-13 19:41:53.387,1789339313.3871748,-77
2026-09-13 19:41:53.394,1789339313.3948672,-67
2026-09-13 19:41:53.402,1789339313.4025593,-65
2026-09-13 19:41:53.410,1789339313.4102516,-63
2026-09-13 19:41:53.417,1789339313.417944,-46
2026-09-13 19:41:53.425,1789339313.4256363,-31
2026-09-13 19:41:53.433,1789339313.4333286,-29
2026-09-13 19:41:53.441,1789339313.441021,-29
2026-09-13 19:41:53.448,1789339313.4487133,-26
2026-09-13 19:41:53.456,1789339313.4564056,-19
2026-09-13 19:41:53.464,1789339313.4640977,-16
2026-09-13 19:41:53.471,1789339313.47179,-12
2026-09-13 19:41:53.479,1789339313.4794824,-19
2026-09-13 19:41:53.487,1789339313.4871747,-26
2026-09-13 19:41:53.494,1789339313.494867,-14
2026-09-13 19:41:53.502,1789339313.5025594,-2
2026-09-13 19:41:53.510,1789339313.5102518,-12
2026-09-13 19:41:53.517,1789339313.517944,-9
2026-09-13 19:41:53.525,1789339313.5256362,2
2026-09-13 19:41:53.533,1789339313.5333285,2
2026-09-13 19:41:53.541,1789339313.5410209,-7
2026-09-13 19:41:53.548,1789339313.5487132,-12
2026-09-13 19:41:53.556,1789339313.5564055,-2
2026-09-13 19:41:53.564,1789339313.564098,4
2026-09-13 19:41:53.571,1789339313.5717902,2
2026-09-13 19:41:53.579,1789339313.5794826,4
2026-09-13 19:41:53.587,1789339313.5871747,4
2026-09-13 19:41:53.594,1789339313.594867,-2
2026-09-13 19:41:53.602,1789339313.6025593,-7
2026-09-13 19:41:53.610,1789339313.6102517,-2
2026-09-13 19:41:53.617,1789339313.617944,2
2026-09-13 19:41:53.625,1789339313.6256363,4
2026-09-13 19:41:53.633,1789339313.6333287,9
2026-09-13 19:41:53.641,1789339313.641021,7
2026-09-13 19:41:53.648,1789339313.6487134,4
2026-09-13 19:41:53.656,1789339313.6564054,19
2026-09-13 19:41:53.664,1789339313.6640978,26
2026-09-13 19:41:53.671,1789339313.6717901,14
2026-09-13 19:41:53.678,1789339313.6789157,9
2026-09-13 19:41:53.686,1789339313.686608,16
2026-09-13 19:41:53.694,1789339313.6943004,14
2026-09-13 19:41:53.701,1789339313.7019928,16
2026-09-13 19:41:53.709,1789339313.709685,21
2026-09-13 19:41:53.717,1789339313.7173772,19
2026-09-13 19:41:53.725,1789339313.7250695,33
2026-09-13 19:41:53.732,1789339313.7327619,55
2026-09-13 19:41:53.740,1789339313.7404542,70
2026-09-13 19:41:53.748,1789339313.7481465,80
2026-09-13 19:41:53.755,1789339313.7558389,80
2026-09-13 19:41:53.763,1789339313.7635312,65
2026-09-13 19:41:53.771,1789339313.7712235,53
2026-09-13 19:41:53.778,1789339313.7789156,46
2026-09-13 19:41:53.786,1789339313.786608,33
2026-09-13 19:41:53.794,1789339313.7943003,19
2026-09-13 19:41:53.801,1789339313.8019927,12
2026-09-13 19:41:53.809,1789339313.809685,9
2026-09-13 19:41:53.817,1789339313.8173773,16
2026-09-13 19:41:53.825,1789339313.8250697,19
2026-09-13 19:41:53.832,1789339313.832762,12
2026-09-13 19:41:53.840,1789339313.840454,16
2026-09-13 19:41:53.848,1789339313.8481464,16
2026-09-13 19:41:53.855,1789339313.8558388,4
2026-09-13 19:41:53.863,1789339313.863531,12
2026-09-13 19:41:53.871,1789339313.8712234,97
2026-09-13 19:41:53.878,1789339313.8789158,310
2026-09-13 19:41:53.886,1789339313.8866081,659
2026-09-13 19:41:53.894,1789339313.8943005,1025
2026-09-13 19:41:53.901,1789339313.9019926,936
2026-09-13 19:41:53.909,1789339313.909685,150
2026-09-13 19:41:53.917,1789339313.9173772,-409
2026-09-13 19:41:53.925,1789339313.9250696,-186
2026-09-13 19:41:53.932,1789339313.932762,19
2026-09-13 19:41:53.940,1789339313.9404542,-84
2026-09-13 19:41:53.948,1789339313.9481466,-65
2026-09-13 19:41:53.955,1789339313.955839,2
2026-09-13 19:41:53.963,1789339313.963531,-29
2026-09-13 19:41:53.971,1789339313.9712234,-19
2026-09-13 19:41:53.978,1789339313.9789157,16
2026-09-13 19:41:53.986,1789339313.986608,4
2026-09-13 19:41:53.994,1789339313.9943004,0
2026-09-13 19:41:54.001,1789339314.0019927,21
2026-09-13 19:41:54.009,1789339314.009685,31
2026-09-13 19:41:54.017,1789339314.0173774,33
2026-09-13 19:41:54.025,1789339314.0250695,46
2026-09-13 19:41:54.032,1789339314.0327618,63
2026-09-13 19:41:54.040,1789339314.0404541,77
2026-09-13 19:41:54.048,1789339314.0481465,84
2026-09-13 19:41:54.055,1789339314.0558388,84
2026-09-13 19:41:54.063,1789339314.0635312,101
2026-09-13 19:41:54.071,1789339314.0712235,123
2026-09-13 19:41:54.078,1789339314.0789158,135
2026-09-13 19:41:54.086,1789339314.086608,157
2026-09-13 19:41:54.094,1789339314.0943003,191
2026-09-13 19:41:54.101,1789339314.1019926,218
2026-09-13 19:41:54.109,1789339314.109685,244
2026-09-13 19:41:54.117,1789339314.1173773,274
2026-09-13 19:41:54.125,1789339314.1250696,295
2026-09-13 19:41:54.132,1789339314.132762,310
2026-09-13 19:41:54.140,1789339314.1404543,307
2026-09-13 19:41:54.148,1789339314.1481464,291
2026-09-13 19:41:54.155,1789339314.1558387,254
2026-09-13 19:41:54.163,1789339314.163531,198
2026-09-13 19:41:54.171,1789339314.1712234,128
2026-09-13 19:41:54.178,1789339314.1789157,63
2026-09-13 19:41:54.186,1789339314.186608,2
2026-09-13 19:41:54.194,1789339314.1943004,-38
2026-09-13 19:41:54.201,1789339314.2019928,-67
2026-09-13 19:41:54.209,1789339314.209685,-82
2026-09-13 19:41:54.217,1789339314.2173772,-89
2026-09-13 19:41:54.225,1789339314.2250695,-99
2026-09-13 19:41:54.232,1789339314.2327619,-99
2026-09-13 19:41:54.239,1789339314.2399127,-89
2026-09-13 19:41:54.247,1789339314.247605,-75
2026-09-13 19:41:54.255,1789339314.2552974,-63
2026-09-13 19:41:54.262,1789339314.2629898,-50
2026-09-13 19:41:54.270,1789339314.270682,-41
2026-09-13 19:41:54.278,1789339314.2783742,-38
2026-09-13 19:41:54.286,1789339314.2860665,-31
2026-09-13 19:41:54.293,1789339314.2937589,-24
2026-09-13 19:41:54.301,1789339314.3014512,-14
2026-09-13 19:41:54.309,1789339314.3091435,-2
2026-09-13 19:41:54.316,1789339314.3168359,4
2026-09-13 19:41:54.324,1789339314.3245282,2
2026-09-13 19:41:54.332,1789339314.3322206,2
2026-09-13 19:41:54.339,1789339314.3399127,9
2026-09-13 19:41:54.347,1789339314.347605,12
2026-09-13 19:41:54.355,1789339314.3552973,12
2026-09-13 19:41:54.362,1789339314.3629897,12
2026-09-13 19:41:54.370,1789339314.370682,14
2026-09-13 19:41:54.378,1789339314.3783743,24
2026-09-13 19:41:54.386,1789339314.3860667,24
2026-09-13 19:41:54.393,1789339314.393759,16
2026-09-13 19:41:54.401,1789339314.401451,16
2026-09-13 19:41:54.409,1789339314.4091434,26
2026-09-13 19:41:54.416,1789339314.4168358,31
2026-09-13 19:41:54.424,1789339314.4245281,26
2026-09-13 19:41:54.432,1789339314.4322205,21
2026-09-13 19:41:54.439,1789339314.4399128,21
2026-09-13 19:41:54.447,1789339314.4476051,24
2026-09-13 19:41:54.455,1789339314.4552975,26
2026-09-13 19:41:54.462,1789339314.4629896,31
2026-09-13 19:41:54.470,1789339314.470682,31
2026-09-13 19:41:54.478,1789339314.4783742,33
2026-09-13 19:41:54.486,1789339314.4860666,33
2026-09-13 19:41:54.493,1789339314.493759,29
2026-09-13 19:41:54.501,1789339314.5014513,31
2026-09-13 19:41:54.509,1789339314.5091436,33
2026-09-13 19:41:54.516,1789339314.516836,38
2026-09-13 19:41:54.524,1789339314.524528,58
2026-09-13 19:41:54.532,1789339314.5322204,72
2026-09-13 19:41:54.539,1789339314.5399127,82
2026-09-13 19:41:54.547,1789339314.547605,87
2026-09-13 19:41:54.555,1789339314.5552974,80
2026-09-13 19:41:54.562,1789339314.5629897,70
2026-09-13 19:41:54.570,1789339314.570682,67
2026-09-13 19:41:54.578,1789339314.5783744,46
2026-09-13 19:41:54.586,1789339314.5860665,21
2026-09-13 19:41:54.593,1789339314.5937588,16
2026-09-13 19:41:54.601,1789339314.6014512,26
2026-09-13 19:41:54.609,1789339314.6091435,26
2026-09-13 19:41:54.616,1789339314.6168358,19
2026-09-13 19:41:54.624,1789339314.6245282,16
2026-09-13 19:41:54.632,1789339314.6322205,19
2026-09-13 19:41:54.639,1789339314.6399128,19
2026-09-13 19:41:54.647,1789339314.647605,19
2026-09-13 19:41:54.655,1789339314.6552973,24
2026-09-13 19:41:54.662,1789339314.6629896,60
2026-09-13 19:41:54.670,1789339314.670682,203
2026-09-13 19:41:54.678,1789339314.6783743,497
2026-09-13 19:41:54.686,1789339314.6860666,877
2026-09-13 19:41:54.693,1789339314.693759,1001
2026-09-13 19:41:54.701,1789339314.7014513,463
2026-09-13 19:41:54.709,1789339314.7091434,-259
2026-09-13 19:41:54.716,1789339314.7168357,-293
2026-09-13 19:41:54.724,1789339314.724528,2
2026-09-13 19:41:54.732,1789339314.7322204,-31
2026-09-13 19:41:54.739,1789339314.7399127,-104
2026-09-13 19:41:54.747,1789339314.747605,-21
2026-09-13 19:41:54.755,1789339314.7552974,-12
2026-09-13 19:41:54.762,1789339314.7629898,-50
2026-09-13 19:41:54.770,1789339314.770682,-16
2026-09-13 19:41:54.778,1789339314.7783742,2
2026-09-13 19:41:54.786,1789339314.7860665,-12
2026-09-13 19:41:54.793,1789339314.7937589,0
2026-09-13 19:41:54.800,1789339314.8009202,21
2026-09-13 19:41:54.808,1789339314.8086126,19
2026-09-13 19:41:54.816,1789339314.816305,21
2026-09-13 19:41:54.823,1789339314.8239973,38
2026-09-13 19:41:54.831,1789339314.8316896,50
2026-09-13 19:41:54.839,1789339314.8393817,55
2026-09-13 19:41:54.847,1789339314.847074,63
2026-09-13 19:41:54.854,1789339314.8547664,72
2026-09-13 19:41:54.862,1789339314.8624587,77
2026-09-13 19:41:54.870,1789339314.870151,94
2026-09-13 19:41:54.877,1789339314.8778434,116
2026-09-13 19:41:54.885,1789339314.8855357,128
2026-09-13 19:41:54.893,1789339314.893228,152
2026-09-13 19:41:54.900,1789339314.9009202,189
2026-09-13 19:41:54.908,1789339314.9086125,208
2026-09-13 19:41:54.916,1789339314.9163048,220
2026-09-13 19:41:54.923,1789339314.9239972,235
2026-09-13 19:41:54.931,1789339314.9316895,247
2026-09-13 19:41:54.939,1789339314.9393818,244
2026-09-13 19:41:54.947,1789339314.9470742,220
2026-09-13 19:41:54.954,1789339314.9547665,174
2026-09-13 19:41:54.962,1789339314.9624586,121
2026-09-13 19:41:54.970,1789339314.970151,65
2026-09-13 19:41:54.977,1789339314.9778433,9
2026-09-13 19:41:54.985,1789339314.9855356,-41
2026-09-13 19:41:54.993,1789339314.993228,-70
2026-09-13 19:41:55.000,1789339315.0009203,-80
2026-09-13 19:41:55.008,1789339315.0086126,-92
2026-09-13 19:41:55.016,1789339315.016305,-101
2026-09-13 19:41:55.023,1789339315.023997,-89
2026-09-13 19:41:55.031,1789339315.0316894,-82
2026-09-13 19:41:55.039,1789339315.0393817,-89
2026-09-13 19:41:55.047,1789339315.047074,-77
2026-09-13 19:41:55.054,1789339315.0547664,-65
2026-09-13 19:41:55.062,1789339315.0624588,-70
2026-09-13 19:41:55.070,1789339315.070151,-63
2026-09-13 19:41:55.077,1789339315.0778434,-50
2026-09-13 19:41:55.085,1789339315.0855355,-48
2026-09-13 19:41:55.093,1789339315.0932279,-41
2026-09-13 19:41:55.100,1789339315.1009202,-26
2026-09-13 19:41:55.108,1789339315.1086125,-26
2026-09-13 19:41:55.116,1789339315.1163049,-29
2026-09-13 19:41:55.123,1789339315.1239972,-24
2026-09-13 19:41:55.131,1789339315.1316895,-19
2026-09-13 19:41:55.139,1789339315.139382,-24
2026-09-13 19:41:55.147,1789339315.147074,-26
2026-09-13 19:41:55.154,1789339315.1547663,-24
2026-09-13 19:41:55.162,1789339315.1624587,-19
2026-09-13 19:41:55.170,1789339315.170151,-21
2026-09-13 19:41:55.177,1789339315.1778433,-21
2026-09-13 19:41:55.185,1789339315.1855357,-12
2026-09-13 19:41:55.193,1789339315.193228,-7
2026-09-13 19:41:55.200,1789339315.2009203,-4
2026-09-13 19:41:55.208,1789339315.2086124,-4
2026-09-13 19:41:55.216,1789339315.2163048,-7
2026-09-13 19:41:55.223,1789339315.223997,0
2026-09-13 19:41:55.231,1789339315.2316895,0
2026-09-13 19:41:55.239,1789339315.2393818,-4
2026-09-13 19:41:55.247,1789339315.2470741,0
2026-09-13 19:41:55.254,1789339315.2547665,9
2026-09-13 19:41:55.262,1789339315.2624588,9
2026-09-13 19:41:55.270,1789339315.270151,-4
2026-09-13 19:41:55.277,1789339315.2778432,-9
2026-09-13 19:41:55.285,1789339315.2855356,4
2026-09-13 19:41:55.293,1789339315.293228,14
2026-09-13 19:41:55.300,1789339315.3009202,7
2026-09-13 19:41:55.308,1789339315.3086126,7
2026-09-13 19:41:55.316,1789339315.316305,16
2026-09-13 19:41:55.323,1789339315.3239973,14
2026-09-13 19:41:55.331,1789339315.3316896,4
2026-09-13 19:41:55.339,1789339315.3393817,7
2026-09-13 19:41:55.347,1789339315.347074,29
2026-09-13 19:41:55.354,1789339315.3547664,46
2026-09-13 19:41:55.361,1789339315.3619275,55
2026-09-13 19:41:55.369,1789339315.3696198,72
2026-09-13 19:41:55.377,1789339315.3773122,70
2026-09-13 19:41:55.385,1789339315.3850045,41
2026-09-13 19:41:55.392,1789339315.3926969,41
2026-09-13 19:41:55.400,1789339315.400389,55
2026-09-13 19:41:55.408,1789339315.4080813,31
2026-09-13 19:41:55.415,1789339315.4157736,2
2026-09-13 19:41:55.423,1789339315.423466,0
2026-09-13 19:41:55.431,1789339315.4311583,0
2026-09-13 19:41:55.438,1789339315.4388506,2
2026-09-13 19:41:55.446,1789339315.446543,9
2026-09-13 19:41:55.454,1789339315.4542353,7
2026-09-13 19:41:55.461,1789339315.4619274,2
2026-09-13 19:41:55.469,1789339315.4696198,4
2026-09-13 19:41:55.477,1789339315.477312,4
2026-09-13 19:41:55.485,1789339315.4850044,9
2026-09-13 19:41:55.492,1789339315.4926968,82
2026-09-13 19:41:55.500,1789339315.500389,286
2026-09-13 19:41:55.508,1789339315.5080814,611
2026-09-13 19:41:55.515,1789339315.5157738,957
2026-09-13 19:41:55.523,1789339315.5234659,911
2026-09-13 19:41:55.531,1789339315.5311582,210
2026-09-13 19:41:55.538,1789339315.5388505,-327
2026-09-13 19:41:55.546,1789339315.546543,-162
2026-09-13 19:41:55.554,1789339315.5542352,7
2026-09-13 19:41:55.561,1789339315.5619276,-92
2026-09-13 19:41:55.569,1789339315.56962,-80
2026-09-13 19:41:55.577,1789339315.5773122,-12
2026-09-13 19:41:55.585,1789339315.5850043,-43
2026-09-13 19:41:55.592,1789339315.5926967,-55
2026-09-13 19:41:55.600,1789339315.600389,-24
2026-09-13 19:41:55.608,1789339315.6080813,-12
2026-09-13 19:41:55.615,1789339315.6157737,-14
2026-09-13 19:41:55.623,1789339315.623466,-12
2026-09-13 19:41:55.631,1789339315.6311584,0
2026-09-13 19:41:55.638,1789339315.6388507,16
2026-09-13 19:41:55.646,1789339315.6465428,19
2026-09-13 19:41:55.654,1789339315.6542351,19
2026-09-13 19:41:55.661,1789339315.6619275,41
2026-09-13 19:41:55.669,1789339315.6696198,55
2026-09-13 19:41:55.677,1789339315.6773121,55
2026-09-13 19:41:55.685,1789339315.6850045,58
2026-09-13 19:41:55.692,1789339315.6926968,77
2026-09-13 19:41:55.700,1789339315.7003891,92
2026-09-13 19:41:55.708,1789339315.7080812,101
2026-09-13 19:41:55.715,1789339315.7157736,126
2026-09-13 19:41:55.723,1789339315.723466,152
2026-09-13 19:41:55.731,1789339315.7311583,172
2026-09-13 19:41:55.738,1789339315.7388506,189
2026-09-13 19:41:55.746,1789339315.746543,208
2026-09-13 19:41:55.754,1789339315.7542353,225
2026-09-13 19:41:55.761,1789339315.7619276,227
2026-09-13 19:41:55.769,1789339315.7696197,210
2026-09-13 19:41:55.777,1789339315.777312,191
2026-09-13 19:41:55.785,1789339315.7850044,160
2026-09-13 19:41:55.792,1789339315.7926967,99
2026-09-13 19:41:55.800,1789339315.800389,38
2026-09-13 19:41:55.808,1789339315.8080814,-4
2026-09-13 19:41:55.815,1789339315.8157737,-41
2026-09-13 19:41:55.823,1789339315.823466,-72
2026-09-13 19:41:55.831,1789339315.8311582,-92
2026-09-13 19:41:55.838,1789339315.8388505,-97
2026-09-13 19:41:55.846,1789339315.8465428,-89
2026-09-13 19:41:55.854,1789339315.8542352,-92
2026-09-13 19:41:55.861,1789339315.8619275,-92
2026-09-13 19:41:55.869,1789339315.8696198,-75
2026-09-13 19:41:55.877,1789339315.8773122,-60
2026-09-13 19:41:55.885,1789339315.8850045,-65
2026-09-13 19:41:55.892,1789339315.8926969,-65
2026-09-13 19:41:55.900,1789339315.900389,-50
2026-09-13 19:41:55.908,1789339315.9080813,-41
2026-09-13 19:41:55.915,1789339315.9157736,-38
2026-09-13 19:41:55.922,1789339315.9229348,-29
2026-09-13 19:41:55.930,1789339315.930627,-31
2026-09-13 19:41:55.938,1789339315.9383194,-31
2026-09-13 19:41:55.946,1789339315.9460118,-21
2026-09-13 19:41:55.953,1789339315.953704,-19
2026-09-13 19:41:55.961,1789339315.9613962,-21
2026-09-13 19:41:55.969,1789339315.9690886,-21
2026-09-13 19:41:55.976,1789339315.976781,-24
2026-09-13 19:41:55.984,1789339315.9844732,-14
2026-09-13 19:41:55.992,1789339315.9921656,-12
2026-09-13 19:41:55.999,1789339315.999858,-21
2026-09-13 19:41:56.007,1789339316.0075502,-21
2026-09-13 19:41:56.015,1789339316.0152426,-7
2026-09-13 19:41:56.022,1789339316.0229347,-2
2026-09-13 19:41:56.030,1789339316.030627,-9
2026-09-13 19:41:56.038,1789339316.0383193,-4
2026-09-13 19:41:56.046,1789339316.0460117,0
2026-09-13 19:41:56.053,1789339316.053704,0
2026-09-13 19:41:56.061,1789339316.0613964,-2
2026-09-13 19:41:56.069,1789339316.0690887,0
2026-09-13 19:41:56.076,1789339316.076781,2
2026-09-13 19:41:56.084,1789339316.0844731,2
2026-09-13 19:41:56.092,1789339316.0921655,4
2026-09-13 19:41:56.099,1789339316.0998578,7
2026-09-13 19:41:56.107,1789339316.1075501,9
2026-09-13 19:41:56.115,1789339316.1152425,14
2026-09-13 19:41:56.122,1789339316.1229348,9
2026-09-13 19:41:56.130,1789339316.1306272,14
2026-09-13 19:41:56.138,1789339316.1383195,31
2026-09-13 19:41:56.146,1789339316.1460116,16
2026-09-13 19:41:56.153,1789339316.153704,-2
2026-09-13 19:41:56.161,1789339316.1613963,19
2026-09-13 19:41:56.169,1789339316.1690886,33
2026-09-13 19:41:56.176,1789339316.176781,12
2026-09-13 19:41:56.184,1789339316.1844733,7
2026-09-13 19:41:56.192,1789339316.1921656,31
2026-09-13 19:41:56.199,1789339316.199858,55
2026-09-13 19:41:56.207,1789339316.20755,70
2026-09-13 19:41:56.215,1789339316.2152424,82
2026-09-13 19:41:56.222,1789339316.2229347,82
2026-09-13 19:41:56.230,1789339316.230627,65
2026-09-13 19:41:56.238,1789339316.2383194,55
2026-09-13 19:41:56.246,1789339316.2460117,50
2026-09-13 19:41:56.253,1789339316.253704,38
2026-09-13 19:41:56.261,1789339316.2613964,24
2026-09-13 19:41:56.269,1789339316.2690885,24
2026-09-13 19:41:56.276,1789339316.2767808,24
2026-09-13 19:41:56.284,1789339316.2844732,7
2026-09-13 19:41:56.292,1789339316.2921655,7
2026-09-13 19:41:56.299,1789339316.2998579,19
2026-09-13 19:41:56.307,1789339316.3075502,21
2026-09-13 19:41:56.315,1789339316.3152425,14
2026-09-13 19:41:56.322,1789339316.3229349,12
2026-09-13 19:41:56.330,1789339316.330627,16
2026-09-13 19:41:56.338,1789339316.3383193,58
2026-09-13 19:41:56.346,1789339316.3460116,232
2026-09-13 19:41:56.353,1789339316.353704,550
2026-09-13 19:41:56.361,1789339316.3613963,914
2026-09-13 19:41:56.369,1789339316.3690886,994
2026-09-13 19:41:56.376,1789339316.376781,404
2026-09-13 19:41:56.384,1789339316.3844733,-291
2026-09-13 19:41:56.392,1789339316.3921654,-264
2026-09-13 19:41:56.399,1789339316.3998578,9
2026-09-13 19:41:56.407,1789339316.40755,-33
2026-09-13 19:41:56.415,1789339316.4152424,-84
2026-09-13 19:41:56.422,1789339316.4229348,-14
2026-09-13 19:41:56.430,1789339316.430627,-14
2026-09-13 19:41:56.438,1789339316.4383194,-36
2026-09-13 19:41:56.446,1789339316.4460118,-9
2026-09-13 19:41:56.453,1789339316.453704,2
2026-09-13 19:41:56.461,1789339316.4613962,0
2026-09-13 19:41:56.469,1789339316.4690886,14
2026-09-13 19:41:56.476,1789339316.476781,26
2026-09-13 19:41:56.483,1789339316.4839115,19
2026-09-13 19:41:56.491,1789339316.4916039,21
2026-09-13 19:41:56.499,1789339316.4992962,33
2026-09-13 19:41:56.506,1789339316.5069885,46
2026-09-13 19:41:56.514,1789339316.5146809,58
2026-09-13 19:41:56.522,1789339316.522373,72
2026-09-13 19:41:56.530,1789339316.5300653,77
2026-09-13 19:41:56.537,1789339316.5377576,84
2026-09-13 19:41:56.545,1789339316.54545,106
2026-09-13 19:41:56.553,1789339316.5531423,138
2026-09-13 19:41:56.560,1789339316.5608346,157
2026-09-13 19:41:56.568,1789339316.568527,172
2026-09-13 19:41:56.576,1789339316.5762193,201
2026-09-13 19:41:56.583,1789339316.5839114,227
2026-09-13 19:41:56.591,1789339316.5916038,237
2026-09-13 19:41:56.599,1789339316.599296,254
2026-09-13 19:41:56.606,1789339316.6069884,271
2026-09-13 19:41:56.614,1789339316.6146808,264
2026-09-13 19:41:56.622,1789339316.622373,225
2026-09-13 19:41:56.630,1789339316.6300654,177
2026-09-13 19:41:56.637,1789339316.6377578,130
2026-09-13 19:41:56.645,1789339316.6454499,72
2026-09-13 19:41:56.653,1789339316.6531422,12
2026-09-13 19:41:56.660,1789339316.6608346,-29
2026-09-13 19:41:56.668,1789339316.668527,-53
2026-09-13 19:41:56.676,1789339316.6762192,-82
2026-09-13 19:41:56.683,1789339316.6839116,-99
2026-09-13 19:41:56.691,1789339316.691604,-99
2026-09-13 19:41:56.699,1789339316.6992962,-104
2026-09-13 19:41:56.706,1789339316.7069883,-106
2026-09-13 19:41:56.714,1789339316.7146807,-82
2026-09-13 19:41:56.722,1789339316.722373,-65
2026-09-13 19:41:56.730,1789339316.7300653,-65
2026-09-13 19:41:56.737,1789339316.7377577,-55
2026-09-13 19:41:56.745,1789339316.74545,-41
2026-09-13 19:41:56.753,1789339316.7531424,-36
2026-09-13 19:41:56.760,1789339316.7608347,-41
2026-09-13 19:41:56.768,1789339316.7685268,-48
2026-09-13 19:41:56.776,1789339316.7762191,-38
2026-09-13 19:41:56.783,1789339316.7839115,-29
2026-09-13 19:41:56.791,1789339316.7916038,-26
2026-09-13 19:41:56.799,1789339316.7992961,-24
2026-09-13 19:41:56.806,1789339316.8069885,-26
2026-09-13 19:41:56.814,1789339316.8146808,-26
2026-09-13 19:41:56.822,1789339316.8223732,-19
2026-09-13 19:41:56.830,1789339316.8300653,-9
2026-09-13 19:41:56.837,1789339316.8377576,-14
2026-09-13 19:41:56.845,1789339316.84545,-24
2026-09-13 19:41:56.853,1789339316.8531423,-21
2026-09-13 19:41:56.860,1789339316.8608346,-12
2026-09-13 19:41:56.868,1789339316.868527,-16
2026-09-13 19:41:56.876,1789339316.8762193,-12
2026-09-13 19:41:56.883,1789339316.8839116,0
2026-09-13 19:41:56.891,1789339316.8916037,0
2026-09-13 19:41:56.899,1789339316.899296,-4
2026-09-13 19:41:56.906,1789339316.9069884,2
2026-09-13 19:41:56.914,1789339316.9146807,7
2026-09-13 19:41:56.922,1789339316.922373,-2
2026-09-13 19:41:56.930,1789339316.9300654,-2
2026-09-13 19:41:56.937,1789339316.9377577,7
2026-09-13 19:41:56.945,1789339316.94545,4
2026-09-13 19:41:56.953,1789339316.9531422,-4
2026-09-13 19:41:56.960,1789339316.9608345,0
2026-09-13 19:41:56.968,1789339316.9685268,16
2026-09-13 19:41:56.976,1789339316.9762192,36
2026-09-13 19:41:56.983,1789339316.9839115,53
2026-09-13 19:41:56.991,1789339316.9916039,70
2026-09-13 19:41:56.999,1789339316.9992962,72
2026-09-13 19:41:57.006,1789339317.0069885,58
2026-09-13 19:41:57.014,1789339317.0146809,43
2026-09-13 19:41:57.022,1789339317.022373,36
2026-09-13 19:41:57.030,1789339317.0300653,38
2026-09-13 19:41:57.037,1789339317.0377576,24
2026-09-13 19:41:57.044,1789339317.044919,0
2026-09-13 19:41:57.052,1789339317.0526114,7
2026-09-13 19:41:57.060,1789339317.0603037,21
2026-09-13 19:41:57.067,1789339317.067996,14
2026-09-13 19:41:57.075,1789339317.0756884,12
2026-09-13 19:41:57.083,1789339317.0833805,16
2026-09-13 19:41:57.091,1789339317.0910728,12
2026-09-13 19:41:57.098,1789339317.0987651,7
2026-09-13 19:41:57.106,1789339317.1064575,19
2026-09-13 19:41:57.114,1789339317.1141498,65
2026-09-13 19:41:57.121,1789339317.1218421,220
2026-09-13 19:41:57.129,1789339317.1295345,535
2026-09-13 19:41:57.137,1789339317.1372268,928
2026-09-13 19:41:57.144,1789339317.144919,1033
2026-09-13 19:41:57.152,1789339317.1526113,414
2026-09-13 19:41:57.160,1789339317.1603036,-337
2026-09-13 19:41:57.167,1789339317.167996,-307
2026-09-13 19:41:57.175,1789339317.1756883,12
2026-09-13 19:41:57.183,1789339317.1833806,-31
2026-09-13 19:41:57.191,1789339317.191073,-82
2026-09-13 19:41:57.198,1789339317.1987653,0
2026-09-13 19:41:57.206,1789339317.2064574,-2
2026-09-13 19:41:57.214,1789339317.2141497,-26
2026-09-13 19:41:57.221,1789339317.221842,4
2026-09-13 19:41:57.229,1789339317.2295344,29
2026-09-13 19:41:57.237,1789339317.2372267,31
2026-09-13 19:41:57.244,1789339317.244919,48
2026-09-13 19:41:57.252,1789339317.2526114,60
2026-09-13 19:41:57.260,1789339317.2603037,58
2026-09-13 19:41:57.267,1789339317.2679958,67
2026-09-13 19:41:57.275,1789339317.2756882,87
2026-09-13 19:41:57.283,1789339317.2833805,97
2026-09-13 19:41:57.291,1789339317.2910728,104
2026-09-13 19:41:57.298,1789339317.2987652,121
2026-09-13 19:41:57.306,1789339317.3064575,135
2026-09-13 19:41:57.314,1789339317.3141499,145
2026-09-13 19:41:57.321,1789339317.3218422,164
2026-09-13 19:41:57.329,1789339317.3295343,196
2026-09-13 19:41:57.337,1789339317.3372266,227
2026-09-13 19:41:57.344,1789339317.344919,257
2026-09-13 19:41:57.352,1789339317.3526113,286
2026-09-13 19:41:57.360,1789339317.3603036,317
2026-09-13 19:41:57.367,1789339317.367996,341
2026-09-13 19:41:57.375,1789339317.3756883,351
2026-09-13 19:41:57.383,1789339317.3833807,356
2026-09-13 19:41:57.391,1789339317.3910728,349
2026-09-13 19:41:57.398,1789339317.398765,310
2026-09-13 19:41:57.406,1789339317.4064574,247
2026-09-13 19:41:57.414,1789339317.4141498,179
2026-09-13 19:41:57.421,1789339317.421842,111
2026-09-13 19:41:57.429,1789339317.4295344,55
2026-09-13 19:41:57.437,1789339317.4372268,7
2026-09-13 19:41:57.444,1789339317.444919,-33
2026-09-13 19:41:57.452,1789339317.4526112,-50
2026-09-13 19:41:57.460,1789339317.4603035,-50
2026-09-13 19:41:57.467,1789339317.467996,-60
2026-09-13 19:41:57.475,1789339317.4756882,-65
2026-09-13 19:41:57.483,1789339317.4833806,-53
2026-09-13 19:41:57.491,1789339317.491073,-50
2026-09-13 19:41:57.498,1789339317.4987652,-55
2026-09-13 19:41:57.506,1789339317.5064576,-46
2026-09-13 19:41:57.514,1789339317.5141497,-31
2026-09-13 19:41:57.521,1789339317.521842,-24
2026-09-13 19:41:57.529,1789339317.5295343,-21
2026-09-13 19:41:57.537,1789339317.5372267,-16
2026-09-13 19:41:57.544,1789339317.544919,-16
2026-09-13 19:41:57.552,1789339317.5526114,-9
2026-09-13 19:41:57.560,1789339317.5603037,-2
2026-09-13 19:41:57.567,1789339317.567996,-2
2026-09-13 19:41:57.575,1789339317.5756884,0
2026-09-13 19:41:57.583,1789339317.5833805,2
2026-09-13 19:41:57.591,1789339317.5910728,2
2026-09-13 19:41:57.598,1789339317.5987651,0
2026-09-13 19:41:57.605,1789339317.605926,-9
2026-09-13 19:41:57.613,1789339317.6136184,-4
2026-09-13 19:41:57.621,1789339317.6213107,7
2026-09-13 19:41:57.629,1789339317.629003,4
2026-09-13 19:41:57.636,1789339317.6366954,-2
2026-09-13 19:41:57.644,1789339317.6443875,0
2026-09-13 19:41:57.652,1789339317.6520798,4
2026-09-13 19:41:57.659,1789339317.6597722,4
2026-09-13 19:41:57.667,1789339317.6674645,2
2026-09-13 19:41:57.675,1789339317.6751568,9
2026-09-13 19:41:57.682,1789339317.6828492,16
2026-09-13 19:41:57.690,1789339317.6905415,14
2026-09-13 19:41:57.698,1789339317.6982338,4
2026-09-13 19:41:57.705,1789339317.705926,9
2026-09-13 19:41:57.713,1789339317.7136183,14
2026-09-13 19:41:57.721,1789339317.7213106,7
2026-09-13 19:41:57.729,1789339317.729003,9
2026-09-13 19:41:57.736,1789339317.7366953,36
2026-09-13 19:41:57.744,1789339317.7443876,55
2026-09-13 19:41:57.752,1789339317.75208,63
2026-09-13 19:41:57.759,1789339317.7597723,67
2026-09-13 19:41:57.767,1789339317.7674644,58
2026-09-13 19:41:57.775,1789339317.7751567,48
2026-09-13 19:41:57.782,1789339317.782849,48
2026-09-13 19:41:57.790,1789339317.7905414,31
2026-09-13 19:41:57.798,1789339317.7982337,7
2026-09-13 19:41:57.805,1789339317.805926,2
2026-09-13 19:41:57.813,1789339317.8136184,7
2026-09-13 19:41:57.821,1789339317.8213108,4
2026-09-13 19:41:57.829,1789339317.8290029,0
2026-09-13 19:41:57.836,1789339317.8366952,9
2026-09-13 19:41:57.844,1789339317.8443875,14
2026-09-13 19:41:57.852,1789339317.8520799,4
2026-09-13 19:41:57.859,1789339317.8597722,4
2026-09-13 19:41:57.867,1789339317.8674645,12
2026-09-13 19:41:57.875,1789339317.8751569,60
2026-09-13 19:41:57.882,1789339317.8828492,235
2026-09-13 19:41:57.890,1789339317.8905413,550
2026-09-13 19:41:57.898,1789339317.8982337,916
2026-09-13 19:41:57.905,1789339317.905926,960
2026-09-13 19:41:57.913,1789339317.9136183,332
2026-09-13 19:41:57.921,1789339317.9213107,-322
2026-09-13 19:41:57.929,1789339317.929003,-252
2026-09-13 19:41:57.936,1789339317.9366953,7
2026-09-13 19:41:57.944,1789339317.9443877,-60
2026-09-13 19:41:57.952,1789339317.9520798,-101
2026-09-13 19:41:57.959,1789339317.959772,-19
2026-09-13 19:41:57.967,1789339317.9674644,-19
2026-09-13 19:41:57.975,1789339317.9751568,-43
2026-09-13 19:41:57.982,1789339317.9828491,-24
2026-09-13 19:41:57.990,1789339317.9905415,-9
2026-09-13 19:41:57.998,1789339317.9982338,-4
2026-09-13 19:41:58.005,1789339318.0059261,2
2026-09-13 19:41:58.013,1789339318.0136182,7
2026-09-13 19:41:58.021,1789339318.0213106,19
2026-09-13 19:41:58.029,1789339318.029003,31
2026-09-13 19:41:58.036,1789339318.0366952,31
2026-09-13 19:41:58.044,1789339318.0443876,41
2026-09-13 19:41:58.052,1789339318.05208,55
2026-09-13 19:41:58.059,1789339318.0597723,67
2026-09-13 19:41:58.067,1789339318.0674646,82
2026-09-13 19:41:58.075,1789339318.0751567,87
2026-09-13 19:41:58.082,1789339318.082849,92
2026-09-13 19:41:58.090,1789339318.0905414,111
2026-09-13 19:41:58.098,1789339318.0982337,135
2026-09-13 19:41:58.105,1789339318.105926,157
2026-09-13 19:41:58.113,1789339318.1136184,181
2026-09-13 19:41:58.121,1789339318.1213107,203
2026-09-13 19:41:58.129,1789339318.129003,220
2026-09-13 19:41:58.136,1789339318.1366954,232
2026-09-13 19:41:58.144,1789339318.1443875,235
2026-09-13 19:41:58.152,1789339318.1520798,220
2026-09-13 19:41:58.159,1789339318.1597722,191
2026-09-13 19:41:58.166,1789339318.1669333,150
2026-09-13 19:41:58.174,1789339318.1746256,101
2026-09-13 19:41:58.182,1789339318.182318,48
2026-09-13 19:41:58.190,1789339318.1900103,-2
2026-09-13 19:41:58.197,1789339318.1977026,-46
2026-09-13 19:41:58.205,1789339318.2053947,-75
2026-09-13 19:41:58.213,1789339318.213087,-84
2026-09-13 19:41:58.220,1789339318.2207794,-87
2026-09-13 19:41:58.228,1789339318.2284718,-87
2026-09-13 19:41:58.236,1789339318.236164,-82
2026-09-13 19:41:58.243,1789339318.2438564,-80
2026-09-13 19:41:58.251,1789339318.2515488,-72
2026-09-13 19:41:58.259,1789339318.259241,-58
2026-09-13 19:41:58.266,1789339318.2669332,-50
2026-09-13 19:41:58.274,1789339318.2746255,-43
2026-09-13 19:41:58.282,1789339318.2823179,-36
2026-09-13 19:41:58.290,1789339318.2900102,-33
2026-09-13 19:41:58.297,1789339318.2977026,-24
2026-09-13 19:41:58.305,1789339318.305395,-16
2026-09-13 19:41:58.313,1789339318.3130872,-14
2026-09-13 19:41:58.320,1789339318.3207796,-9
2026-09-13 19:41:58.328,1789339318.3284717,-12
2026-09-13 19:41:58.336,1789339318.336164,-14
2026-09-13 19:41:58.343,1789339318.3438563,-9
2026-09-13 19:41:58.351,1789339318.3515487,-2
2026-09-13 19:41:58.359,1789339318.359241,-2
2026-09-13 19:41:58.366,1789339318.3669333,-2
2026-09-13 19:41:58.374,1789339318.3746257,0
2026-09-13 19:41:58.382,1789339318.382318,4
2026-09-13 19:41:58.390,1789339318.39001,7
2026-09-13 19:41:58.397,1789339318.3977025,9
2026-09-13 19:41:58.405,1789339318.4053948,9
2026-09-13 19:41:58.413,1789339318.4130871,9
2026-09-13 19:41:58.420,1789339318.4207795,7
2026-09-13 19:41:58.428,1789339318.4284718,7
2026-09-13 19:41:58.436,1789339318.4361641,9
2026-09-13 19:41:58.443,1789339318.4438565,12
2026-09-13 19:41:58.451,1789339318.4515486,12
2026-09-13 19:41:58.459,1789339318.459241,9
2026-09-13 19:41:58.466,1789339318.4669333,9
2026-09-13 19:41:58.474,1789339318.4746256,19
2026-09-13 19:41:58.482,1789339318.482318,24
2026-09-13 19:41:58.490,1789339318.4900103,16
2026-09-13 19:41:58.497,1789339318.4977026,9
2026-09-13 19:41:58.505,1789339318.505395,12
2026-09-13 19:41:58.513,1789339318.513087,14
2026-09-13 19:41:58.520,1789339318.5207794,12
2026-09-13 19:41:58.528,1789339318.5284717,19
2026-09-13 19:41:58.536,1789339318.536164,46
2026-09-13 19:41:58.543,1789339318.5438564,63
2026-09-13 19:41:58.551,1789339318.5515487,65
2026-09-13 19:41:58.559,1789339318.559241,67
2026-09-13 19:41:58.566,1789339318.5669334,63
2026-09-13 19:41:58.574,1789339318.5746255,50
2026-09-13 19:41:58.582,1789339318.5823178,48
2026-09-13 19:41:58.590,1789339318.5900102,36
2026-09-13 19:41:58.597,1789339318.5977025,12
2026-09-13 19:41:58.605,1789339318.6053948,2
2026-09-13 19:41:58.613,1789339318.6130872,4
2026-09-13 19:41:58.620,1789339318.6207795,2
2026-09-13 19:41:58.628,1789339318.6284719,0
2026-09-13 19:41:58.636,1789339318.636164,2
2026-09-13 19:41:58.643,1789339318.6438563,4
2026-09-13 19:41:58.651,1789339318.6515486,4
2026-09-13 19:41:58.659,1789339318.659241,2
2026-09-13 19:41:58.666,1789339318.6669333,-4
2026-09-13 19:41:58.674,1789339318.6746256,36
2026-09-13 19:41:58.682,1789339318.682318,206
2026-09-13 19:41:58.690,1789339318.6900103,489
2026-09-13 19:41:58.697,1789339318.6977026,841
2026-09-13 19:41:58.705,1789339318.7053947,994
2026-09-13 19:41:58.713,1789339318.713087,489
2026-09-13 19:41:58.720,1789339318.7207794,-235
2026-09-13 19:41:58.727,1789339318.7279103,-283
2026-09-13 19:41:58.735,1789339318.7356026,-2
2026-09-13 19:41:58.743,1789339318.743295,-31
2026-09-13 19:41:58.750,1789339318.7509873,-104
2026-09-13 19:41:58.758,1789339318.7586796,-38
2026-09-13 19:41:58.766,1789339318.7663717,-16
2026-09-13 19:41:58.774,1789339318.774064,-41
2026-09-13 19:41:58.781,1789339318.7817564,-24
2026-09-13 19:41:58.789,1789339318.7894487,-7
2026-09-13 19:41:58.797,1789339318.797141,-4
2026-09-13 19:41:58.804,1789339318.8048334,7
2026-09-13 19:41:58.812,1789339318.8125257,12
2026-09-13 19:41:58.820,1789339318.820218,14
2026-09-13 19:41:58.827,1789339318.8279102,26
2026-09-13 19:41:58.835,1789339318.8356025,41
2026-09-13 19:41:58.843,1789339318.8432949,48
2026-09-13 19:41:58.850,1789339318.8509872,48
2026-09-13 19:41:58.858,1789339318.8586795,53
2026-09-13 19:41:58.866,1789339318.8663719,72
2026-09-13 19:41:58.874,1789339318.8740642,82
2026-09-13 19:41:58.881,1789339318.8817565,97
2026-09-13 19:41:58.889,1789339318.8894486,118
2026-09-13 19:41:58.897,1789339318.897141,138
2026-09-13 19:41:58.904,1789339318.9048333,152
2026-09-13 19:41:58.912,1789339318.9125257,177
2026-09-13 19:41:58.920,1789339318.920218,201
2026-09-13 19:41:58.927,1789339318.9279103,218
2026-09-13 19:41:58.935,1789339318.9356027,230
2026-09-13 19:41:58.943,1789339318.943295,232
2026-09-13 19:41:58.950,1789339318.950987,220
2026-09-13 19:41:58.958,1789339318.9586794,203
2026-09-13 19:41:58.966,1789339318.9663718,177
2026-09-13 19:41:58.974,1789339318.974064,128
2026-09-13 19:41:58.981,1789339318.9817564,58
2026-09-13 19:41:58.989,1789339318.9894488,4
2026-09-13 19:41:58.997,1789339318.9971411,-24
2026-09-13 19:41:59.004,1789339319.0048335,-53
2026-09-13 19:41:59.012,1789339319.0125256,-77
2026-09-13 19:41:59.020,1789339319.020218,-87
2026-09-13 19:41:59.027,1789339319.0279102,-87
2026-09-13 19:41:59.035,1789339319.0356026,-87
2026-09-13 19:41:59.043,1789339319.043295,-84
2026-09-13 19:41:59.050,1789339319.0509872,-72
2026-09-13 19:41:59.058,1789339319.0586796,-55
2026-09-13 19:41:59.066,1789339319.066372,-53
2026-09-13 19:41:59.074,1789339319.074064,-55
2026-09-13 19:41:59.081,1789339319.0817564,-48
2026-09-13 19:41:59.089,1789339319.0894487,-38
2026-09-13 19:41:59.097,1789339319.097141,-31
2026-09-13 19:41:59.104,1789339319.1048334,-26
2026-09-13 19:41:59.112,1789339319.1125257,-29
2026-09-13 19:41:59.120,1789339319.120218,-29
2026-09-13 19:41:59.127,1789339319.1279104,-19
2026-09-13 19:41:59.135,1789339319.1356025,-12
2026-09-13 19:41:59.143,1789339319.1432948,-16
2026-09-13 19:41:59.150,1789339319.1509871,-24
2026-09-13 19:41:59.158,1789339319.1586795,-21
2026-09-13 19:41:59.166,1789339319.1663718,-16
2026-09-13 19:41:59.174,1789339319.1740642,-9
2026-09-13 19:41:59.181,1789339319.1817565,-7
2026-09-13 19:41:59.189,1789339319.1894488,-9
2026-09-13 19:41:59.197,1789339319.197141,-7
2026-09-13 19:41:59.204,1789339319.2048333,0
2026-09-13 19:41:59.212,1789339319.2125256,0
2026-09-13 19:41:59.220,1789339319.220218,-4
2026-09-13 19:41:59.227,1789339319.2279103,-7
2026-09-13 19:41:59.235,1789339319.2356026,-2
2026-09-13 19:41:59.243,1789339319.243295,2
2026-09-13 19:41:59.250,1789339319.2509873,9
2026-09-13 19:41:59.258,1789339319.2586796,14
2026-09-13 19:41:59.266,1789339319.2663717,19
2026-09-13 19:41:59.274,1789339319.274064,14
2026-09-13 19:41:59.281,1789339319.2817564,7
2026-09-13 19:41:59.288,1789339319.2889175,14
2026-09-13 19:41:59.296,1789339319.2966099,26
2026-09-13 19:41:59.304,1789339319.3043022,16
2026-09-13 19:41:59.311,1789339319.3119946,12
2026-09-13 19:41:59.319,1789339319.319687,19
2026-09-13 19:41:59.327,1789339319.327379,19
2026-09-13 19:41:59.335,1789339319.3350713,19
2026-09-13 19:41:59.342,1789339319.3427637,46
2026-09-13 19:41:59.350,1789339319.350456,70
2026-09-13 19:41:59.358,1789339319.3581483,72
2026-09-13 19:41:59.365,1789339319.3658407,82
2026-09-13 19:41:59.373,1789339319.373533,82
2026-09-13 19:41:59.381,1789339319.3812253,65
2026-09-13 19:41:59.388,1789339319.3889174,65
2026-09-13 19:41:59.396,1789339319.3966098,67
2026-09-13 19:41:59.404,1789339319.4043021,41
2026-09-13 19:41:59.411,1789339319.4119945,19
2026-09-13 19:41:59.419,1789339319.4196868,21
2026-09-13 19:41:59.427,1789339319.4273791,19
2026-09-13 19:41:59.435,1789339319.4350715,19
2026-09-13 19:41:59.442,1789339319.4427638,29
2026-09-13 19:41:59.450,1789339319.450456,29
2026-09-13 19:41:59.458,1789339319.4581482,19
2026-09-13 19:41:59.465,1789339319.4658406,21
2026-09-13 19:41:59.473,1789339319.473533,29
2026-09-13 19:41:59.481,1789339319.4812253,26
2026-09-13 19:41:59.488,1789339319.4889176,87
2026-09-13 19:41:59.496,1789339319.49661,300
2026-09-13 19:41:59.504,1789339319.5043023,637
2026-09-13 19:41:59.511,1789339319.5119944,987
2026-09-13 19:41:59.519,1789339319.5196867,972
2026-09-13 19:41:59.527,1789339319.527379,264
2026-09-13 19:41:59.535,1789339319.5350714,-368
2026-09-13 19:41:59.542,1789339319.5427637,-220
2026-09-13 19:41:59.550,1789339319.550456,29
2026-09-13 19:41:59.558,1789339319.5581484,-55
2026-09-13 19:41:59.565,1789339319.5658407,-75
2026-09-13 19:41:59.573,1789339319.5735328,0
2026-09-13 19:41:59.581,1789339319.5812252,-14
2026-09-13 19:41:59.588,1789339319.5889175,-29
2026-09-13 19:41:59.596,1789339319.5966098,7
2026-09-13 19:41:59.604,1789339319.6043022,24
2026-09-13 19:41:59.611,1789339319.6119945,21
2026-09-13 19:41:59.619,1789339319.6196868,24
2026-09-13 19:41:59.627,1789339319.6273792,31
2026-09-13 19:41:59.635,1789339319.6350713,48
2026-09-13 19:41:59.642,1789339319.6427636,60
2026-09-13 19:41:59.650,1789339319.650456,53
2026-09-13 19:41:59.658,1789339319.6581483,58
2026-09-13 19:41:59.665,1789339319.6658406,80
2026-09-13 19:41:59.673,1789339319.673533,97
2026-09-13 19:41:59.681,1789339319.6812253,104
2026-09-13 19:41:59.688,1789339319.6889176,113
2026-09-13 19:41:59.696,1789339319.6966097,126
2026-09-13 19:41:59.704,1789339319.704302,150
2026-09-13 19:41:59.711,1789339319.7119944,181
2026-09-13 19:41:59.719,1789339319.7196867,210
2026-09-13 19:41:59.727,1789339319.727379,235
2026-09-13 19:41:59.735,1789339319.7350714,261
2026-09-13 19:41:59.742,1789339319.7427638,278
2026-09-13 19:41:59.750,1789339319.750456,286
2026-09-13 19:41:59.758,1789339319.7581482,288
2026-09-13 19:41:59.765,1789339319.7658405,276
2026-09-13 19:41:59.773,1789339319.7735329,237
2026-09-13 19:41:59.781,1789339319.7812252,184
2026-09-13 19:41:59.788,1789339319.7889175,113
2026-09-13 19:41:59.796,1789339319.7966099,48
2026-09-13 19:41:59.804,1789339319.8043022,7
2026-09-13 19:41:59.811,1789339319.8119946,-33
2026-09-13 19:41:59.819,1789339319.819687,-80
2026-09-13 19:41:59.827,1789339319.827379,-97
2026-09-13 19:41:59.835,1789339319.8350713,-84
2026-09-13 19:41:59.842,1789339319.8427637,-84
2026-09-13 19:41:59.849,1789339319.8498943,-94
2026-09-13 19:41:59.857,1789339319.8575866,-89
2026-09-13 19:41:59.865,1789339319.865279,-87
2026-09-13 19:41:59.872,1789339319.8729713,-82
2026-09-13 19:41:59.880,1789339319.8806636,-65
2026-09-13 19:41:59.888,1789339319.8883557,-50
2026-09-13 19:41:59.896,1789339319.896048,-48
2026-09-13 19:41:59.903,1789339319.9037404,-46
2026-09-13 19:41:59.911,1789339319.9114327,-26
2026-09-13 19:41:59.919,1789339319.919125,-21
2026-09-13 19:41:59.926,1789339319.9268174,-38
2026-09-13 19:41:59.934,1789339319.9345098,-29
2026-09-13 19:41:59.942,1789339319.942202,-9
2026-09-13 19:41:59.949,1789339319.9498942,-19
2026-09-13 19:41:59.957,1789339319.9575865,-29
2026-09-13 19:41:59.965,1789339319.9652789,-29
2026-09-13 19:41:59.972,1789339319.9729712,-24
2026-09-13 19:41:59.980,1789339319.9806635,-4
2026-09-13 19:41:59.988,1789339319.9883559,-4
2026-09-13 19:41:59.996,1789339319.9960482,-14
2026-09-13 19:42:00.003,1789339320.0037405,-4
2026-09-13 19:42:00.011,1789339320.0114326,-4
2026-09-13 19:42:00.019,1789339320.019125,-16
2026-09-13 19:42:00.026,1789339320.0268173,-16
2026-09-13 19:42:00.034,1789339320.0345097,-4
2026-09-13 19:42:00.042,1789339320.042202,2
2026-09-13 19:42:00.049,1789339320.0498943,4
2026-09-13 19:42:00.057,1789339320.0575867,-2
2026-09-13 19:42:00.065,1789339320.065279,-7
2026-09-13 19:42:00.072,1789339320.072971,4
2026-09-13 19:42:00.080,1789339320.0806634,19
2026-09-13 19:42:00.088,1789339320.0883558,7
2026-09-13 19:42:00.096,1789339320.096048,0
2026-09-13 19:42:00.103,1789339320.1037405,29
2026-09-13 19:42:00.111,1789339320.1114328,58
2026-09-13 19:42:00.119,1789339320.1191251,63
2026-09-13 19:42:00.126,1789339320.1268175,60
2026-09-13 19:42:00.134,1789339320.1345096,58
2026-09-13 19:42:00.142,1789339320.142202,55
2026-09-13 19:42:00.149,1789339320.1498942,48
2026-09-13 19:42:00.157,1789339320.1575866,29
2026-09-13 19:42:00.165,1789339320.165279,14
2026-09-13 19:42:00.172,1789339320.1729712,12
2026-09-13 19:42:00.180,1789339320.1806636,9
2026-09-13 19:42:00.188,1789339320.188356,12
2026-09-13 19:42:00.196,1789339320.196048,19
2026-09-13 19:42:00.203,1789339320.2037404,24
2026-09-13 19:42:00.211,1789339320.2114327,26
2026-09-13 19:42:00.219,1789339320.219125,24
2026-09-13 19:42:00.226,1789339320.2268174,21
2026-09-13 19:42:00.234,1789339320.2345097,24
2026-09-13 19:42:00.242,1789339320.242202,82
2026-09-13 19:42:00.249,1789339320.2498944,276
2026-09-13 19:42:00.257,1789339320.2575865,620
2026-09-13 19:42:00.265,1789339320.2652788,989
2026-09-13 19:42:00.272,1789339320.2729712,984
2026-09-13 19:42:00.280,1789339320.2806635,310
2026-09-13 19:42:00.288,1789339320.2883558,-349
2026-09-13 19:42:00.296,1789339320.2960482,-242
2026-09-13 19:42:00.303,1789339320.3037405,33
2026-09-13 19:42:00.311,1789339320.3114328,-36
2026-09-13 19:42:00.319,1789339320.319125,-65
2026-09-13 19:42:00.326,1789339320.3268173,16
2026-09-13 19:42:00.334,1789339320.3345096,7
2026-09-13 19:42:00.342,1789339320.342202,-7
2026-09-13 19:42:00.349,1789339320.3498943,29
2026-09-13 19:42:00.357,1789339320.3575866,43
2026-09-13 19:42:00.365,1789339320.365279,33
2026-09-13 19:42:00.372,1789339320.3729713,43
2026-09-13 19:42:00.380,1789339320.3806636,60
2026-09-13 19:42:00.388,1789339320.3883557,67
2026-09-13 19:42:00.396,1789339320.396048,75
2026-09-13 19:42:00.403,1789339320.4037404,82
2026-09-13 19:42:00.410,1789339320.4109015,87
2026-09-13 19:42:00.418,1789339320.418594,99
2026-09-13 19:42:00.426,1789339320.4262862,111
2026-09-13 19:42:00.433,1789339320.4339786,118
2026-09-13 19:42:00.441,1789339320.441671,133
2026-09-13 19:42:00.449,1789339320.449363,157
2026-09-13 19:42:00.457,1789339320.4570553,172
2026-09-13 19:42:00.464,1789339320.4647477,191
2026-09-13 19:42:00.472,1789339320.47244,218
2026-09-13 19:42:00.480,1789339320.4801323,240
2026-09-13 19:42:00.487,1789339320.4878247,259
2026-09-13 19:42:00.495,1789339320.495517,278
2026-09-13 19:42:00.503,1789339320.5032094,293
2026-09-13 19:42:00.510,1789339320.5109015,293
2026-09-13 19:42:00.518,1789339320.5185938,274
2026-09-13 19:42:00.526,1789339320.5262861,247
2026-09-13 19:42:00.533,1789339320.5339785,194
2026-09-13 19:42:00.541,1789339320.5416708,123
2026-09-13 19:42:00.549,1789339320.5493631,63
2026-09-13 19:42:00.557,1789339320.5570555,4
2026-09-13 19:42:00.564,1789339320.5647478,-46
2026-09-13 19:42:00.572,1789339320.57244,-67
2026-09-13 19:42:00.580,1789339320.5801322,-77
2026-09-13 19:42:00.587,1789339320.5878246,-89
2026-09-13 19:42:00.595,1789339320.595517,-99
2026-09-13 19:42:00.603,1789339320.6032093,-94
2026-09-13 19:42:00.610,1789339320.6109016,-82
2026-09-13 19:42:00.618,1789339320.618594,-77
2026-09-13 19:42:00.626,1789339320.6262863,-67
2026-09-13 19:42:00.633,1789339320.6339784,-58
2026-09-13 19:42:00.641,1789339320.6416707,-53
2026-09-13 19:42:00.649,1789339320.649363,-48
2026-09-13 19:42:00.657,1789339320.6570554,-43
2026-09-13 19:42:00.664,1789339320.6647477,-36
2026-09-13 19:42:00.672,1789339320.67244,-29
2026-09-13 19:42:00.680,1789339320.6801324,-26
2026-09-13 19:42:00.687,1789339320.6878247,-26
2026-09-13 19:42:00.695,1789339320.6955168,-16
2026-09-13 19:42:00.703,1789339320.7032092,-12
2026-09-13 19:42:00.710,1789339320.7109015,-16
2026-09-13 19:42:00.718,1789339320.7185938,-16
2026-09-13 19:42:00.726,1789339320.7262862,-12
2026-09-13 19:42:00.733,1789339320.7339785,-7
2026-09-13 19:42:00.741,1789339320.7416708,-14
2026-09-13 19:42:00.749,1789339320.7493632,-16
2026-09-13 19:42:00.757,1789339320.7570553,-9
2026-09-13 19:42:00.764,1789339320.7647476,-12
2026-09-13 19:42:00.772,1789339320.77244,-14
2026-09-13 19:42:00.780,1789339320.7801323,-9
2026-09-13 19:42:00.787,1789339320.7878246,-4
2026-09-13 19:42:00.795,1789339320.795517,-2
2026-09-13 19:42:00.803,1789339320.8032093,0
2026-09-13 19:42:00.810,1789339320.8109016,0
2026-09-13 19:42:00.818,1789339320.8185937,0
2026-09-13 19:42:00.826,1789339320.826286,2
2026-09-13 19:42:00.833,1789339320.8339784,7
2026-09-13 19:42:00.841,1789339320.8416708,4
2026-09-13 19:42:00.849,1789339320.849363,0
2026-09-13 19:42:00.857,1789339320.8570554,2
2026-09-13 19:42:00.864,1789339320.8647478,4
2026-09-13 19:42:00.872,1789339320.87244,4
2026-09-13 19:42:00.880,1789339320.8801322,16
2026-09-13 19:42:00.887,1789339320.8878245,36
2026-09-13 19:42:00.895,1789339320.8955169,46
2026-09-13 19:42:00.903,1789339320.9032092,58
2026-09-13 19:42:00.910,1789339320.9109015,65
2026-09-13 19:42:00.918,1789339320.918594,60
2026-09-13 19:42:00.926,1789339320.9262862,48
2026-09-13 19:42:00.933,1789339320.9339786,33
2026-09-13 19:42:00.941,1789339320.941671,19
2026-09-13 19:42:00.949,1789339320.949363,7
2026-09-13 19:42:00.957,1789339320.9570553,-4
2026-09-13 19:42:00.964,1789339320.9647477,-4
2026-09-13 19:42:00.971,1789339320.9718833,2
2026-09-13 19:42:00.979,1789339320.9795756,0
2026-09-13 19:42:00.987,1789339320.987268,0
2026-09-13 19:42:00.994,1789339320.9949603,7
2026-09-13 19:42:01.002,1789339321.0026526,9
2026-09-13 19:42:01.010,1789339321.0103447,9
2026-09-13 19:42:01.018,1789339321.018037,12
2026-09-13 19:42:01.025,1789339321.0257294,67
2026-09-13 19:42:01.033,1789339321.0334218,257
2026-09-13 19:42:01.041,1789339321.041114,584
2026-09-13 19:42:01.048,1789339321.0488064,953
2026-09-13 19:42:01.056,1789339321.0564988,960
2026-09-13 19:42:01.064,1789339321.064191,278
2026-09-13 19:42:01.071,1789339321.0718832,-324
2026-09-13 19:42:01.079,1789339321.0795755,-189
2026-09-13 19:42:01.087,1789339321.0872679,21
2026-09-13 19:42:01.094,1789339321.0949602,-84
2026-09-13 19:42:01.102,1789339321.1026525,-106
2026-09-13 19:42:01.110,1789339321.110345,-19
2026-09-13 19:42:01.118,1789339321.1180372,-26
2026-09-13 19:42:01.125,1789339321.1257296,-55
2026-09-13 19:42:01.133,1789339321.1334217,-29
2026-09-13 19:42:01.141,1789339321.141114,-14
2026-09-13 19:42:01.148,1789339321.1488063,-12
2026-09-13 19:42:01.156,1789339321.1564987,0
2026-09-13 19:42:01.164,1789339321.164191,7
2026-09-13 19:42:01.171,1789339321.1718833,9
2026-09-13 19:42:01.179,1789339321.1795757,19
2026-09-13 19:42:01.187,1789339321.187268,29
2026-09-13 19:42:01.194,1789339321.19496,24
2026-09-13 19:42:01.202,1789339321.2026525,29
2026-09-13 19:42:01.210,1789339321.2103448,53
2026-09-13 19:42:01.218,1789339321.2180371,65
2026-09-13 19:42:01.225,1789339321.2257295,72
2026-09-13 19:42:01.233,1789339321.2334218,94
2026-09-13 19:42:01.241,1789339321.2411141,109
2026-09-13 19:42:01.248,1789339321.2488065,126
2026-09-13 19:42:01.256,1789339321.2564986,147
2026-09-13 19:42:01.264,1789339321.264191,167
2026-09-13 19:42:01.271,1789339321.2718832,191
2026-09-13 19:42:01.279,1789339321.2795756,208
2026-09-13 19:42:01.287,1789339321.287268,206
2026-09-13 19:42:01.294,1789339321.2949603,201
2026-09-13 19:42:01.302,1789339321.3026526,206
2026-09-13 19:42:01.310,1789339321.310345,186
2026-09-13 19:42:01.318,1789339321.318037,140
2026-09-13 19:42:01.325,1789339321.3257294,84
2026-09-13 19:42:01.333,1789339321.3334217,33
2026-09-13 19:42:01.341,1789339321.341114,-9
2026-09-13 19:42:01.348,1789339321.3488064,-46
2026-09-13 19:42:01.356,1789339321.3564987,-72
2026-09-13 19:42:01.364,1789339321.364191,-92
2026-09-13 19:42:01.371,1789339321.3718834,-101
2026-09-13 19:42:01.379,1789339321.3795755,-99
2026-09-13 19:42:01.387,1789339321.3872678,-97
2026-09-13 19:42:01.394,1789339321.3949602,-97
2026-09-13 19:42:01.402,1789339321.4026525,-82
2026-09-13 19:42:01.410,1789339321.4103448,-67
2026-09-13 19:42:01.418,1789339321.4180372,-70
2026-09-13 19:42:01.425,1789339321.4257295,-65
2026-09-13 19:42:01.433,1789339321.4334219,-55
2026-09-13 19:42:01.441,1789339321.441114,-50
2026-09-13 19:42:01.448,1789339321.4488063,-46
2026-09-13 19:42:01.456,1789339321.4564986,-36
2026-09-13 19:42:01.464,1789339321.464191,-36
2026-09-13 19:42:01.471,1789339321.4718833,-43
2026-09-13 19:42:01.479,1789339321.4795756,-33
2026-09-13 19:42:01.487,1789339321.487268,-26
2026-09-13 19:42:01.494,1789339321.4949603,-31
2026-09-13 19:42:01.502,1789339321.5026526,-29
2026-09-13 19:42:01.510,1789339321.5103447,-29
2026-09-13 19:42:01.518,1789339321.518037,-26
2026-09-13 19:42:01.525,1789339321.5257294,-24
2026-09-13 19:42:01.532,1789339321.5328856,-26
2026-09-13 19:42:01.540,1789339321.540578,-21
2026-09-13 19:42:01.548,1789339321.5482702,-12
2026-09-13 19:42:01.555,1789339321.5559626,-19
2026-09-13 19:42:01.563,1789339321.563655,-19
2026-09-13 19:42:01.571,1789339321.571347,-9
2026-09-13 19:42:01.579,1789339321.5790393,-14
2026-09-13 19:42:01.586,1789339321.5867317,-14
2026-09-13 19:42:01.594,1789339321.594424,-2
2026-09-13 19:42:01.602,1789339321.6021163,-2
2026-09-13 19:42:01.609,1789339321.6098087,-2
2026-09-13 19:42:01.617,1789339321.617501,-2
2026-09-13 19:42:01.625,1789339321.6251934,-4
2026-09-13 19:42:01.632,1789339321.6328855,2
2026-09-13 19:42:01.640,1789339321.6405778,9
2026-09-13 19:42:01.648,1789339321.6482701,7
2026-09-13 19:42:01.655,1789339321.6559625,2
2026-09-13 19:42:01.663,1789339321.6636548,9
2026-09-13 19:42:01.671,1789339321.6713471,14
2026-09-13 19:42:01.679,1789339321.6790395,9
2026-09-13 19:42:01.686,1789339321.6867318,7
2026-09-13 19:42:01.694,1789339321.694424,9
2026-09-13 19:42:01.702,1789339321.7021163,4
2026-09-13 19:42:01.709,1789339321.7098086,7
2026-09-13 19:42:01.717,1789339321.717501,31
2026-09-13 19:42:01.725,1789339321.7251933,53
2026-09-13 19:42:01.732,1789339321.7328856,65
2026-09-13 19:42:01.740,1789339321.740578,70
2026-09-13 19:42:01.748,1789339321.7482703,65
2026-09-13 19:42:01.755,1789339321.7559624,53
2026-09-13 19:42:01.763,1789339321.7636547,48
2026-09-13 19:42:01.771,1789339321.771347,43
2026-09-13 19:42:01.779,1789339321.7790394,26
2026-09-13 19:42:01.786,1789339321.7867317,9
2026-09-13 19:42:01.794,1789339321.794424,4
2026-09-13 19:42:01.802,1789339321.8021164,4
2026-09-13 19:42:01.809,1789339321.8098087,4
2026-09-13 19:42:01.817,1789339321.8175008,2
2026-09-13 19:42:01.825,1789339321.8251932,7
2026-09-13 19:42:01.832,1789339321.8328855,12
2026-09-13 19:42:01.840,1789339321.8405778,14
2026-09-13 19:42:01.848,1789339321.8482702,12
2026-09-13 19:42:01.855,1789339321.8559625,14
2026-09-13 19:42:01.863,1789339321.8636549,92
2026-09-13 19:42:01.871,1789339321.8713472,315
2026-09-13 19:42:01.879,1789339321.8790393,640
2026-09-13 19:42:01.886,1789339321.8867316,970
2026-09-13 19:42:01.894,1789339321.894424,892
