timestamp_local,timestamp_epoch_s,ecg_uV
2026-09-13 19:54:33.890,1789340073.8903441,80
2026-09-13 19:54:33.898,1789340073.8980365,99
2026-09-13 19:54:33.905,1789340073.9057288,89
2026-09-13 19:54:33.913,1789340073.9134212,92
2026-09-13 19:54:33.921,1789340073.9211135,118
2026-09-13 19:54:33.928,1789340073.9288056,147
2026-09-13 19:54:33.936,1789340073.936498,177
2026-09-13 19:54:33.944,1789340073.9441903,203
2026-09-13 19:54:33.951,1789340073.9518826,240
2026-09-13 19:54:33.959,1789340073.959575,286
2026-09-13 19:54:33.967,1789340073.9672673,317
2026-09-13 19:54:33.974,1789340073.9749596,339
2026-09-13 19:54:33.982,1789340073.982652,344
2026-09-13 19:54:33.990,1789340073.990344,317
2026-09-13 19:54:33.998,1789340073.9980364,283
2026-09-13 19:54:34.005,1789340074.0057287,225
2026-09-13 19:54:34.013,1789340074.013421,128
2026-09-13 19:54:34.021,1789340074.0211134,48
2026-09-13 19:54:34.028,1789340074.0288057,2
2026-09-13 19:54:34.036,1789340074.036498,-43
2026-09-13 19:54:34.044,1789340074.0441904,-84
2026-09-13 19:54:34.051,1789340074.0518825,-106
2026-09-13 19:54:34.059,1789340074.0595748,-121
2026-09-13 19:54:34.067,1789340074.0672672,-128
2026-09-13 19:54:34.074,1789340074.0749595,-123
2026-09-13 19:54:34.082,1789340074.0826519,-118
2026-09-13 19:54:34.090,1789340074.0903442,-106
2026-09-13 19:54:34.098,1789340074.0980365,-92
2026-09-13 19:54:34.105,1789340074.1057289,-94
2026-09-13 19:54:34.113,1789340074.113421,-97
2026-09-13 19:54:34.121,1789340074.1211133,-70
2026-09-13 19:54:34.128,1789340074.1288056,-58
2026-09-13 19:54:34.136,1789340074.136498,-77
2026-09-13 19:54:34.144,1789340074.1441903,-75
2026-09-13 19:54:34.151,1789340074.1518826,-41
2026-09-13 19:54:34.159,1789340074.159575,-43
2026-09-13 19:54:34.167,1789340074.1672673,-58
2026-09-13 19:54:34.174,1789340074.1749594,-26
2026-09-13 19:54:34.182,1789340074.1826518,-2
2026-09-13 19:54:34.190,1789340074.190344,-26
2026-09-13 19:54:34.198,1789340074.1980364,-46
2026-09-13 19:54:34.205,1789340074.2057288,-43
2026-09-13 19:54:34.213,1789340074.213421,-26
2026-09-13 19:54:34.221,1789340074.2211134,-14
2026-09-13 19:54:34.228,1789340074.2288058,-9
2026-09-13 19:54:34.236,1789340074.2364979,-21
2026-09-13 19:54:34.244,1789340074.2441902,-36
2026-09-13 19:54:34.251,1789340074.2518826,-24
2026-09-13 19:54:34.259,1789340074.259575,-4
2026-09-13 19:54:34.267,1789340074.2672672,-4
2026-09-13 19:54:34.274,1789340074.2749596,-14
2026-09-13 19:54:34.282,1789340074.282652,-19
2026-09-13 19:54:34.290,1789340074.2903442,-19
2026-09-13 19:54:34.298,1789340074.2980363,-26
2026-09-13 19:54:34.305,1789340074.3057287,-26
2026-09-13 19:54:34.313,1789340074.313421,-16
2026-09-13 19:54:34.321,1789340074.3211133,-4
2026-09-13 19:54:34.328,1789340074.3288057,16
2026-09-13 19:54:34.336,1789340074.336498,36
2026-09-13 19:54:34.344,1789340074.3441904,46
2026-09-13 19:54:34.351,1789340074.3518827,65
2026-09-13 19:54:34.359,1789340074.3595748,65
2026-09-13 19:54:34.367,1789340074.3672671,41
2026-09-13 19:54:34.374,1789340074.3749595,21
2026-09-13 19:54:34.382,1789340074.3826518,14
2026-09-13 19:54:34.390,1789340074.3903441,-2
2026-09-13 19:54:34.398,1789340074.3980365,-4
2026-09-13 19:54:34.405,1789340074.4057288,4
2026-09-13 19:54:34.413,1789340074.4134212,7
2026-09-13 19:54:34.421,1789340074.4211135,2
2026-09-13 19:54:34.428,1789340074.4288056,0
2026-09-13 19:54:34.436,1789340074.436498,2
2026-09-13 19:54:34.444,1789340074.4441903,12
2026-09-13 19:54:34.451,1789340074.4513514,24
2026-09-13 19:54:34.459,1789340074.4590437,16
2026-09-13 19:54:34.466,1789340074.466736,16
2026-09-13 19:54:34.474,1789340074.4744284,133
2026-09-13 19:54:34.482,1789340074.4821208,460
2026-09-13 19:54:34.489,1789340074.4898129,936
2026-09-13 19:54:34.497,1789340074.4975052,1263
2026-09-13 19:54:34.505,1789340074.5051975,904
2026-09-13 19:54:34.512,1789340074.5128899,-33
2026-09-13 19:54:34.520,1789340074.5205822,-434
2026-09-13 19:54:34.528,1789340074.5282745,-99
2026-09-13 19:54:34.535,1789340074.5359669,26
2026-09-13 19:54:34.543,1789340074.5436592,-113
2026-09-13 19:54:34.551,1789340074.5513513,-82
2026-09-13 19:54:34.559,1789340074.5590436,-16
2026-09-13 19:54:34.566,1789340074.566736,-21
2026-09-13 19:54:34.574,1789340074.5744283,7
2026-09-13 19:54:34.582,1789340074.5821207,26
2026-09-13 19:54:34.589,1789340074.589813,2
2026-09-13 19:54:34.597,1789340074.5975053,9
2026-09-13 19:54:34.605,1789340074.6051977,33
2026-09-13 19:54:34.612,1789340074.6128898,43
2026-09-13 19:54:34.620,1789340074.620582,53
2026-09-13 19:54:34.628,1789340074.6282744,65
2026-09-13 19:54:34.635,1789340074.6359668,70
2026-09-13 19:54:34.643,1789340074.643659,70
2026-09-13 19:54:34.651,1789340074.6513515,77
2026-09-13 19:54:34.659,1789340074.6590438,89
2026-09-13 19:54:34.666,1789340074.6667361,111
2026-09-13 19:54:34.674,1789340074.6744282,143
2026-09-13 19:54:34.682,1789340074.6821206,164
2026-09-13 19:54:34.689,1789340074.689813,177
2026-09-13 19:54:34.697,1789340074.6975052,208
2026-09-13 19:54:34.705,1789340074.7051976,249
2026-09-13 19:54:34.712,1789340074.71289,286
2026-09-13 19:54:34.720,1789340074.7205822,310
2026-09-13 19:54:34.728,1789340074.7282746,324
2026-09-13 19:54:34.735,1789340074.7359667,334
2026-09-13 19:54:34.743,1789340074.743659,329
2026-09-13 19:54:34.751,1789340074.7513514,288
2026-09-13 19:54:34.759,1789340074.7590437,215
2026-09-13 19:54:34.766,1789340074.766736,140
2026-09-13 19:54:34.774,1789340074.7744284,75
2026-09-13 19:54:34.782,1789340074.7821207,12
2026-09-13 19:54:34.789,1789340074.789813,-43
2026-09-13 19:54:34.797,1789340074.7975051,-65
2026-09-13 19:54:34.805,1789340074.8051975,-67
2026-09-13 19:54:34.812,1789340074.8128898,-72
2026-09-13 19:54:34.820,1789340074.8205822,-75
2026-09-13 19:54:34.828,1789340074.8282745,-70
2026-09-13 19:54:34.835,1789340074.8359668,-67
2026-09-13 19:54:34.843,1789340074.8436592,-65
2026-09-13 19:54:34.851,1789340074.8513515,-55
2026-09-13 19:54:34.859,1789340074.8590436,-48
2026-09-13 19:54:34.866,1789340074.866736,-43
2026-09-13 19:54:34.874,1789340074.8744283,-38
2026-09-13 19:54:34.882,1789340074.8821206,-36
2026-09-13 19:54:34.889,1789340074.889813,-26
2026-09-13 19:54:34.897,1789340074.8975053,-16
2026-09-13 19:54:34.905,1789340074.9051976,-19
2026-09-13 19:54:34.912,1789340074.91289,-4
2026-09-13 19:54:34.920,1789340074.920582,33
2026-09-13 19:54:34.928,1789340074.9282744,36
2026-09-13 19:54:34.935,1789340074.9359667,9
2026-09-13 19:54:34.943,1789340074.943659,14
2026-09-13 19:54:34.951,1789340074.9513514,26
2026-09-13 19:54:34.959,1789340074.9590437,19
2026-09-13 19:54:34.966,1789340074.966736,19
2026-09-13 19:54:34.974,1789340074.9744284,21
2026-09-13 19:54:34.982,1789340074.9821208,21
2026-09-13 19:54:34.989,1789340074.9898129,36
2026-09-13 19:54:34.997,1789340074.9975052,38
2026-09-13 19:54:35.005,1789340075.0051975,24
2026-09-13 19:54:35.012,1789340075.012359,29
2026-09-13 19:54:35.020,1789340075.0200512,36
2026-09-13 19:54:35.027,1789340075.0277436,26
2026-09-13 19:54:35.035,1789340075.035436,29
2026-09-13 19:54:35.043,1789340075.0431283,41
2026-09-13 19:54:35.050,1789340075.0508204,41
2026-09-13 19:54:35.058,1789340075.0585127,38
2026-09-13 19:54:35.066,1789340075.066205,33
2026-09-13 19:54:35.073,1789340075.0738974,29
2026-09-13 19:54:35.081,1789340075.0815897,29
2026-09-13 19:54:35.089,1789340075.089282,24
2026-09-13 19:54:35.096,1789340075.0969744,14
2026-09-13 19:54:35.104,1789340075.1046667,33
2026-09-13 19:54:35.112,1789340075.1123588,75
2026-09-13 19:54:35.120,1789340075.1200511,82
2026-09-13 19:54:35.127,1789340075.1277435,70
2026-09-13 19:54:35.135,1789340075.1354358,80
2026-09-13 19:54:35.143,1789340075.1431282,92
2026-09-13 19:54:35.150,1789340075.1508205,84
2026-09-13 19:54:35.158,1789340075.1585128,77
2026-09-13 19:54:35.166,1789340075.1662052,65
2026-09-13 19:54:35.173,1789340075.1738973,41
2026-09-13 19:54:35.181,1789340075.1815896,29
2026-09-13 19:54:35.189,1789340075.189282,38
2026-09-13 19:54:35.196,1789340075.1969743,43
2026-09-13 19:54:35.204,1789340075.2046666,31
2026-09-13 19:54:35.212,1789340075.212359,26
2026-09-13 19:54:35.220,1789340075.2200513,38
2026-09-13 19:54:35.227,1789340075.2277436,46
2026-09-13 19:54:35.235,1789340075.2354357,38
2026-09-13 19:54:35.243,1789340075.243128,50
2026-09-13 19:54:35.250,1789340075.2508204,201
2026-09-13 19:54:35.258,1789340075.2585127,589
2026-09-13 19:54:35.266,1789340075.266205,1079
2026-09-13 19:54:35.273,1789340075.2738974,1268
2026-09-13 19:54:35.281,1789340075.2815897,749
2026-09-13 19:54:35.289,1789340075.289282,-63
2026-09-13 19:54:35.296,1789340075.2969742,-252
2026-09-13 19:54:35.304,1789340075.3046665,-7
2026-09-13 19:54:35.312,1789340075.3123589,-24
2026-09-13 19:54:35.320,1789340075.3200512,-126
2026-09-13 19:54:35.327,1789340075.3277435,-65
2026-09-13 19:54:35.335,1789340075.3354359,-43
2026-09-13 19:54:35.343,1789340075.3431282,-72
2026-09-13 19:54:35.350,1789340075.3508205,-53
2026-09-13 19:54:35.358,1789340075.3585126,-31
2026-09-13 19:54:35.366,1789340075.366205,-33
2026-09-13 19:54:35.373,1789340075.3738973,-31
2026-09-13 19:54:35.381,1789340075.3815897,-24
2026-09-13 19:54:35.389,1789340075.389282,-14
2026-09-13 19:54:35.396,1789340075.3969743,-4
2026-09-13 19:54:35.404,1789340075.4046667,0
2026-09-13 19:54:35.412,1789340075.412359,7
2026-09-13 19:54:35.420,1789340075.420051,14
2026-09-13 19:54:35.427,1789340075.4277434,21
2026-09-13 19:54:35.435,1789340075.4354358,38
2026-09-13 19:54:35.443,1789340075.443128,55
2026-09-13 19:54:35.450,1789340075.4508204,60
2026-09-13 19:54:35.458,1789340075.4585128,67
2026-09-13 19:54:35.466,1789340075.4662051,97
2026-09-13 19:54:35.473,1789340075.4738975,126
2026-09-13 19:54:35.481,1789340075.4815896,143
2026-09-13 19:54:35.489,1789340075.489282,174
2026-09-13 19:54:35.496,1789340075.4969742,208
2026-09-13 19:54:35.504,1789340075.5046666,220
2026-09-13 19:54:35.512,1789340075.512359,225
2026-09-13 19:54:35.520,1789340075.5200512,225
2026-09-13 19:54:35.527,1789340075.5277436,196
2026-09-13 19:54:35.535,1789340075.535436,133
2026-09-13 19:54:35.543,1789340075.5431283,63
2026-09-13 19:54:35.550,1789340075.5508204,9
2026-09-13 19:54:35.558,1789340075.5585127,-24
2026-09-13 19:54:35.566,1789340075.566205,-43
2026-09-13 19:54:35.573,1789340075.5733662,-70
2026-09-13 19:54:35.581,1789340075.5810585,-87
2026-09-13 19:54:35.588,1789340075.5887508,-87
2026-09-13 19:54:35.596,1789340075.5964432,-80
2026-09-13 19:54:35.604,1789340075.6041355,-89
2026-09-13 19:54:35.611,1789340075.6118276,-92
2026-09-13 19:54:35.619,1789340075.61952,-77
2026-09-13 19:54:35.627,1789340075.6272123,-77
2026-09-13 19:54:35.634,1789340075.6349046,-80
2026-09-13 19:54:35.642,1789340075.642597,-65
2026-09-13 19:54:35.650,1789340075.6502893,-43
2026-09-13 19:54:35.657,1789340075.6579816,-33
2026-09-13 19:54:35.665,1789340075.665674,-33
2026-09-13 19:54:35.673,1789340075.673366,-38
2026-09-13 19:54:35.681,1789340075.6810584,-33
2026-09-13 19:54:35.688,1789340075.6887507,-24
2026-09-13 19:54:35.696,1789340075.696443,-24
2026-09-13 19:54:35.704,1789340075.7041354,-24
2026-09-13 19:54:35.711,1789340075.7118278,-19
2026-09-13 19:54:35.719,1789340075.71952,-19
2026-09-13 19:54:35.727,1789340075.7272124,-19
2026-09-13 19:54:35.734,1789340075.7349045,-21
2026-09-13 19:54:35.742,1789340075.7425969,-19
2026-09-13 19:54:35.750,1789340075.7502892,-12
2026-09-13 19:54:35.757,1789340075.7579815,-12
2026-09-13 19:54:35.765,1789340075.7656739,-14
2026-09-13 19:54:35.773,1789340075.7733662,-12
2026-09-13 19:54:35.781,1789340075.7810585,-9
2026-09-13 19:54:35.788,1789340075.788751,-9
2026-09-13 19:54:35.796,1789340075.796443,-2
2026-09-13 19:54:35.804,1789340075.8041353,7
2026-09-13 19:54:35.811,1789340075.8118277,-2
2026-09-13 19:54:35.819,1789340075.81952,-9
2026-09-13 19:54:35.827,1789340075.8272123,2
2026-09-13 19:54:35.834,1789340075.8349047,9
2026-09-13 19:54:35.842,1789340075.842597,4
2026-09-13 19:54:35.850,1789340075.8502893,4
2026-09-13 19:54:35.857,1789340075.8579814,7
2026-09-13 19:54:35.865,1789340075.8656738,7
2026-09-13 19:54:35.873,1789340075.873366,7
2026-09-13 19:54:35.881,1789340075.8810585,4
2026-09-13 19:54:35.888,1789340075.8887508,-4
2026-09-13 19:54:35.896,1789340075.8964431,0
2026-09-13 19:54:35.904,1789340075.9041355,19
2026-09-13 19:54:35.911,1789340075.9118278,38
2026-09-13 19:54:35.919,1789340075.91952,58
2026-09-13 19:54:35.927,1789340075.9272122,70
2026-09-13 19:54:35.934,1789340075.9349046,53
2026-09-13 19:54:35.942,1789340075.942597,48
2026-09-13 19:54:35.950,1789340075.9502892,67
2026-09-13 19:54:35.957,1789340075.9579816,67
2026-09-13 19:54:35.965,1789340075.965674,36
2026-09-13 19:54:35.973,1789340075.9733663,16
2026-09-13 19:54:35.981,1789340075.9810584,19
2026-09-13 19:54:35.988,1789340075.9887507,16
2026-09-13 19:54:35.996,1789340075.996443,7
2026-09-13 19:54:36.004,1789340076.0041354,12
2026-09-13 19:54:36.011,1789340076.0118277,21
2026-09-13 19:54:36.019,1789340076.01952,14
2026-09-13 19:54:36.027,1789340076.0272124,12
2026-09-13 19:54:36.034,1789340076.0349047,14
2026-09-13 19:54:36.042,1789340076.0425968,9
2026-09-13 19:54:36.050,1789340076.0502892,82
2026-09-13 19:54:36.057,1789340076.0579815,358
2026-09-13 19:54:36.065,1789340076.0656738,795
2026-09-13 19:54:36.073,1789340076.0733662,1178
2026-09-13 19:54:36.081,1789340076.0810585,1037
2026-09-13 19:54:36.088,1789340076.0887508,240
2026-09-13 19:54:36.096,1789340076.0964432,-293
2026-09-13 19:54:36.104,1789340076.1041355,-111
2026-09-13 19:54:36.111,1789340076.1118276,19
2026-09-13 19:54:36.119,1789340076.11952,-111
2026-09-13 19:54:36.127,1789340076.1272123,-101
2026-09-13 19:54:36.134,1789340076.1343732,-29
2026-09-13 19:54:36.142,1789340076.1420655,-41
2026-09-13 19:54:36.149,1789340076.1497579,-46
2026-09-13 19:54:36.157,1789340076.1574502,-29
2026-09-13 19:54:36.165,1789340076.1651425,-19
2026-09-13 19:54:36.172,1789340076.1728346,2
2026-09-13 19:54:36.180,1789340076.180527,16
2026-09-13 19:54:36.188,1789340076.1882193,14
2026-09-13 19:54:36.195,1789340076.1959116,16
2026-09-13 19:54:36.203,1789340076.203604,21
2026-09-13 19:54:36.211,1789340076.2112963,16
2026-09-13 19:54:36.218,1789340076.2189887,19
2026-09-13 19:54:36.226,1789340076.226681,41
2026-09-13 19:54:36.234,1789340076.234373,67
2026-09-13 19:54:36.242,1789340076.2420654,89
2026-09-13 19:54:36.249,1789340076.2497578,104
2026-09-13 19:54:36.257,1789340076.25745,123
2026-09-13 19:54:36.265,1789340076.2651424,140
2026-09-13 19:54:36.272,1789340076.2728348,162
2026-09-13 19:54:36.280,1789340076.280527,196
2026-09-13 19:54:36.288,1789340076.2882195,235
2026-09-13 19:54:36.295,1789340076.2959116,269
2026-09-13 19:54:36.303,1789340076.303604,286
2026-09-13 19:54:36.311,1789340076.3112962,286
2026-09-13 19:54:36.318,1789340076.3189886,286
2026-09-13 19:54:36.326,1789340076.326681,288
2026-09-13 19:54:36.334,1789340076.3343732,242
2026-09-13 19:54:36.342,1789340076.3420656,152
2026-09-13 19:54:36.349,1789340076.349758,97
2026-09-13 19:54:36.357,1789340076.35745,60
2026-09-13 19:54:36.365,1789340076.3651423,21
2026-09-13 19:54:36.372,1789340076.3728347,9
2026-09-13 19:54:36.380,1789340076.380527,0
2026-09-13 19:54:36.388,1789340076.3882194,-19
2026-09-13 19:54:36.395,1789340076.3959117,-19
2026-09-13 19:54:36.403,1789340076.403604,-12
2026-09-13 19:54:36.411,1789340076.4112964,-14
2026-09-13 19:54:36.418,1789340076.4189885,-19
2026-09-13 19:54:36.426,1789340076.4266808,-14
2026-09-13 19:54:36.434,1789340076.4343731,2
2026-09-13 19:54:36.442,1789340076.4420655,21
2026-09-13 19:54:36.449,1789340076.4497578,19
2026-09-13 19:54:36.457,1789340076.4574502,26
2026-09-13 19:54:36.465,1789340076.4651425,48
2026-09-13 19:54:36.472,1789340076.4728348,41
2026-09-13 19:54:36.480,1789340076.480527,21
2026-09-13 19:54:36.488,1789340076.4882193,31
2026-09-13 19:54:36.495,1789340076.4959116,55
2026-09-13 19:54:36.503,1789340076.503604,63
2026-09-13 19:54:36.511,1789340076.5112963,50
2026-09-13 19:54:36.518,1789340076.5189886,50
2026-09-13 19:54:36.526,1789340076.526681,60
2026-09-13 19:54:36.534,1789340076.5343733,60
2026-09-13 19:54:36.542,1789340076.5420654,58
2026-09-13 19:54:36.549,1789340076.5497577,60
2026-09-13 19:54:36.557,1789340076.55745,65
2026-09-13 19:54:36.565,1789340076.5651424,70
2026-09-13 19:54:36.572,1789340076.5728347,75
2026-09-13 19:54:36.580,1789340076.580527,77
2026-09-13 19:54:36.588,1789340076.5882194,80
2026-09-13 19:54:36.595,1789340076.5959117,77
2026-09-13 19:54:36.603,1789340076.6036038,80
2026-09-13 19:54:36.611,1789340076.6112962,77
2026-09-13 19:54:36.618,1789340076.6189885,70
2026-09-13 19:54:36.626,1789340076.6266809,72
2026-09-13 19:54:36.634,1789340076.6343732,77
2026-09-13 19:54:36.642,1789340076.6420655,80
2026-09-13 19:54:36.649,1789340076.6497579,87
2026-09-13 19:54:36.657,1789340076.6574502,82
2026-09-13 19:54:36.665,1789340076.6651425,72
2026-09-13 19:54:36.672,1789340076.6728346,84
2026-09-13 19:54:36.680,1789340076.680527,92
2026-09-13 19:54:36.688,1789340076.6882193,87
2026-09-13 19:54:36.695,1789340076.6953807,101
2026-09-13 19:54:36.703,1789340076.703073,118
2026-09-13 19:54:36.710,1789340076.7107654,133
2026-09-13 19:54:36.718,1789340076.7184577,145
2026-09-13 19:54:36.726,1789340076.72615,138
2026-09-13 19:54:36.733,1789340076.7338421,118
2026-09-13 19:54:36.741,1789340076.7415345,113
2026-09-13 19:54:36.749,1789340076.7492268,109
2026-09-13 19:54:36.756,1789340076.7569191,77
2026-09-13 19:54:36.764,1789340076.7646115,70
2026-09-13 19:54:36.772,1789340076.7723038,92
2026-09-13 19:54:36.779,1789340076.7799962,89
2026-09-13 19:54:36.787,1789340076.7876885,67
2026-09-13 19:54:36.795,1789340076.7953806,72
2026-09-13 19:54:36.803,1789340076.803073,84
2026-09-13 19:54:36.810,1789340076.8107653,82
2026-09-13 19:54:36.818,1789340076.8184576,87
2026-09-13 19:54:36.826,1789340076.82615,92
2026-09-13 19:54:36.833,1789340076.8338423,77
2026-09-13 19:54:36.841,1789340076.8415346,155
2026-09-13 19:54:36.849,1789340076.849227,477
2026-09-13 19:54:36.856,1789340076.856919,945
2026-09-13 19:54:36.864,1789340076.8646114,1224
2026-09-13 19:54:36.872,1789340076.8723037,860
2026-09-13 19:54:36.879,1789340076.879996,-29
2026-09-13 19:54:36.887,1789340076.8876884,-392
2026-09-13 19:54:36.895,1789340076.8953807,-50
2026-09-13 19:54:36.903,1789340076.903073,65
2026-09-13 19:54:36.910,1789340076.9107654,-63
2026-09-13 19:54:36.918,1789340076.9184575,0
2026-09-13 19:54:36.926,1789340076.9261498,63
2026-09-13 19:54:36.933,1789340076.9338422,12
2026-09-13 19:54:36.941,1789340076.9415345,19
2026-09-13 19:54:36.949,1789340076.9492269,63
2026-09-13 19:54:36.956,1789340076.9569192,60
2026-09-13 19:54:36.964,1789340076.9646115,46
2026-09-13 19:54:36.972,1789340076.9723039,58
2026-09-13 19:54:36.979,1789340076.979996,77
2026-09-13 19:54:36.987,1789340076.9876883,84
2026-09-13 19:54:36.995,1789340076.9953806,104
2026-09-13 19:54:37.003,1789340077.003073,138
2026-09-13 19:54:37.010,1789340077.0107653,140
2026-09-13 19:54:37.018,1789340077.0184577,126
2026-09-13 19:54:37.026,1789340077.02615,138
2026-09-13 19:54:37.033,1789340077.0338423,164
2026-09-13 19:54:37.041,1789340077.0415344,174
2026-09-13 19:54:37.049,1789340077.0492268,181
2026-09-13 19:54:37.056,1789340077.056919,227
2026-09-13 19:54:37.064,1789340077.0646114,293
2026-09-13 19:54:37.072,1789340077.0723038,329
2026-09-13 19:54:37.079,1789340077.079996,341
2026-09-13 19:54:37.087,1789340077.0876884,363
2026-09-13 19:54:37.095,1789340077.0953808,388
2026-09-13 19:54:37.103,1789340077.103073,388
2026-09-13 19:54:37.110,1789340077.1107652,358
2026-09-13 19:54:37.118,1789340077.1184576,312
2026-09-13 19:54:37.126,1789340077.12615,237
2026-09-13 19:54:37.133,1789340077.1338422,138
2026-09-13 19:54:37.141,1789340077.1415346,48
2026-09-13 19:54:37.149,1789340077.149227,-7
2026-09-13 19:54:37.156,1789340077.1569192,-43
2026-09-13 19:54:37.164,1789340077.1646113,-67
2026-09-13 19:54:37.172,1789340077.1723037,-82
2026-09-13 19:54:37.179,1789340077.179996,-97
2026-09-13 19:54:37.187,1789340077.1876884,-111
2026-09-13 19:54:37.195,1789340077.1953807,-104
2026-09-13 19:54:37.203,1789340077.203073,-92
2026-09-13 19:54:37.210,1789340077.2107654,-77
2026-09-13 19:54:37.218,1789340077.2184577,-60
2026-09-13 19:54:37.226,1789340077.22615,-63
2026-09-13 19:54:37.233,1789340077.2338421,-75
2026-09-13 19:54:37.241,1789340077.2415345,-60
2026-09-13 19:54:37.249,1789340077.2492268,-33
2026-09-13 19:54:37.256,1789340077.256383,-26
2026-09-13 19:54:37.264,1789340077.2640753,-26
2026-09-13 19:54:37.271,1789340077.2717676,-24
2026-09-13 19:54:37.279,1789340077.27946,-21
2026-09-13 19:54:37.287,1789340077.2871523,-9
2026-09-13 19:54:37.294,1789340077.2948444,-4
2026-09-13 19:54:37.302,1789340077.3025367,-9
2026-09-13 19:54:37.310,1789340077.310229,-2
2026-09-13 19:54:37.317,1789340077.3179214,2
2026-09-13 19:54:37.325,1789340077.3256137,-12
2026-09-13 19:54:37.333,1789340077.333306,-21
2026-09-13 19:54:37.340,1789340077.3409984,-7
2026-09-13 19:54:37.348,1789340077.3486907,9
2026-09-13 19:54:37.356,1789340077.3563828,7
2026-09-13 19:54:37.364,1789340077.3640752,-4
2026-09-13 19:54:37.371,1789340077.3717675,-4
2026-09-13 19:54:37.379,1789340077.3794599,7
2026-09-13 19:54:37.387,1789340077.3871522,7
2026-09-13 19:54:37.394,1789340077.3948445,12
2026-09-13 19:54:37.402,1789340077.4025369,9
2026-09-13 19:54:37.410,1789340077.4102292,0
2026-09-13 19:54:37.417,1789340077.4179213,19
2026-09-13 19:54:37.425,1789340077.4256136,41
2026-09-13 19:54:37.433,1789340077.433306,36
2026-09-13 19:54:37.440,1789340077.4409983,63
2026-09-13 19:54:37.448,1789340077.4486907,84
2026-09-13 19:54:37.456,1789340077.456383,63
2026-09-13 19:54:37.464,1789340077.4640753,50
2026-09-13 19:54:37.471,1789340077.4717677,67
2026-09-13 19:54:37.479,1789340077.4794598,58
2026-09-13 19:54:37.487,1789340077.487152,29
2026-09-13 19:54:37.494,1789340077.4948444,21
2026-09-13 19:54:37.502,1789340077.5025368,26
2026-09-13 19:54:37.510,1789340077.510229,26
2026-09-13 19:54:37.517,1789340077.5179214,29
2026-09-13 19:54:37.525,1789340077.5256138,36
2026-09-13 19:54:37.533,1789340077.5333061,36
2026-09-13 19:54:37.540,1789340077.5409982,33
2026-09-13 19:54:37.548,1789340077.5486906,29
2026-09-13 19:54:37.556,1789340077.556383,29
2026-09-13 19:54:37.564,1789340077.5640752,65
2026-09-13 19:54:37.571,1789340077.5717676,247
2026-09-13 19:54:37.579,1789340077.57946,659
2026-09-13 19:54:37.587,1789340077.5871522,1154
2026-09-13 19:54:37.594,1789340077.5948446,1251
2026-09-13 19:54:37.602,1789340077.6025367,567
2026-09-13 19:54:37.610,1789340077.610229,-252
2026-09-13 19:54:37.617,1789340077.6179214,-269
2026-09-13 19:54:37.625,1789340077.6256137,36
2026-09-13 19:54:37.633,1789340077.633306,-31
2026-09-13 19:54:37.640,1789340077.6409984,-99
2026-09-13 19:54:37.648,1789340077.6486907,-4
2026-09-13 19:54:37.656,1789340077.656383,-12
2026-09-13 19:54:37.664,1789340077.6640751,-46
2026-09-13 19:54:37.671,1789340077.6717675,-12
2026-09-13 19:54:37.679,1789340077.6794598,7
2026-09-13 19:54:37.687,1789340077.6871521,0
2026-09-13 19:54:37.694,1789340077.6948445,-7
2026-09-13 19:54:37.702,1789340077.7025368,-4
2026-09-13 19:54:37.710,1789340077.7102292,29
2026-09-13 19:54:37.717,1789340077.7179215,70
2026-09-13 19:54:37.725,1789340077.7256136,65
2026-09-13 19:54:37.733,1789340077.733306,48
2026-09-13 19:54:37.740,1789340077.7409983,65
2026-09-13 19:54:37.748,1789340077.7486906,92
2026-09-13 19:54:37.756,1789340077.756383,94
2026-09-13 19:54:37.764,1789340077.7640753,99
2026-09-13 19:54:37.771,1789340077.7717676,121
2026-09-13 19:54:37.779,1789340077.77946,145
2026-09-13 19:54:37.787,1789340077.7871523,167
2026-09-13 19:54:37.794,1789340077.7948444,194
2026-09-13 19:54:37.802,1789340077.8025367,223
2026-09-13 19:54:37.810,1789340077.810229,257
2026-09-13 19:54:37.817,1789340077.817365,288
2026-09-13 19:54:37.825,1789340077.8250573,312
2026-09-13 19:54:37.832,1789340077.8327496,320
2026-09-13 19:54:37.840,1789340077.840442,288
2026-09-13 19:54:37.848,1789340077.8481343,235
2026-09-13 19:54:37.855,1789340077.8558264,162
2026-09-13 19:54:37.863,1789340077.8635187,80
2026-09-13 19:54:37.871,1789340077.871211,14
2026-09-13 19:54:37.878,1789340077.8789034,-29
2026-09-13 19:54:37.886,1789340077.8865957,-70
2026-09-13 19:54:37.894,1789340077.894288,-97
2026-09-13 19:54:37.901,1789340077.9019804,-89
2026-09-13 19:54:37.909,1789340077.9096727,-89
2026-09-13 19:54:37.917,1789340077.9173648,-109
2026-09-13 19:54:37.925,1789340077.9250572,-94
2026-09-13 19:54:37.932,1789340077.9327495,-53
2026-09-13 19:54:37.940,1789340077.9404418,-50
2026-09-13 19:54:37.948,1789340077.9481342,-65
2026-09-13 19:54:37.955,1789340077.9558265,-55
2026-09-13 19:54:37.963,1789340077.9635189,-43
2026-09-13 19:54:37.971,1789340077.9712112,-38
2026-09-13 19:54:37.978,1789340077.9789033,-26
2026-09-13 19:54:37.986,1789340077.9865956,-24
2026-09-13 19:54:37.994,1789340077.994288,-33
2026-09-13 19:54:38.001,1789340078.0019803,-24
2026-09-13 19:54:38.009,1789340078.0096726,-9
2026-09-13 19:54:38.017,1789340078.017365,-14
2026-09-13 19:54:38.025,1789340078.0250573,-7
2026-09-13 19:54:38.032,1789340078.0327497,12
2026-09-13 19:54:38.040,1789340078.0404418,14
2026-09-13 19:54:38.048,1789340078.048134,14
2026-09-13 19:54:38.055,1789340078.0558264,26
2026-09-13 19:54:38.063,1789340078.0635188,24
2026-09-13 19:54:38.071,1789340078.071211,12
2026-09-13 19:54:38.078,1789340078.0789034,9
2026-09-13 19:54:38.086,1789340078.0865958,12
2026-09-13 19:54:38.094,1789340078.094288,0
2026-09-13 19:54:38.101,1789340078.1019802,4
2026-09-13 19:54:38.109,1789340078.1096725,33
2026-09-13 19:54:38.117,1789340078.117365,36
2026-09-13 19:54:38.125,1789340078.1250572,12
2026-09-13 19:54:38.132,1789340078.1327496,19
2026-09-13 19:54:38.140,1789340078.140442,41
2026-09-13 19:54:38.148,1789340078.1481342,26
2026-09-13 19:54:38.155,1789340078.1558266,4
2026-09-13 19:54:38.163,1789340078.1635187,9
2026-09-13 19:54:38.171,1789340078.171211,21
2026-09-13 19:54:38.178,1789340078.1789033,24
2026-09-13 19:54:38.186,1789340078.1865957,36
2026-09-13 19:54:38.194,1789340078.194288,65
2026-09-13 19:54:38.201,1789340078.2019804,75
2026-09-13 19:54:38.209,1789340078.2096727,65
2026-09-13 19:54:38.217,1789340078.217365,72
2026-09-13 19:54:38.225,1789340078.2250571,67
2026-09-13 19:54:38.232,1789340078.2327495,38
2026-09-13 19:54:38.240,1789340078.2404418,29
2026-09-13 19:54:38.248,1789340078.2481341,31
2026-09-13 19:54:38.255,1789340078.2558265,21
2026-09-13 19:54:38.263,1789340078.2635188,16
2026-09-13 19:54:38.271,1789340078.2712111,19
2026-09-13 19:54:38.278,1789340078.2789035,14
2026-09-13 19:54:38.286,1789340078.2865956,14
2026-09-13 19:54:38.294,1789340078.294288,19
2026-09-13 19:54:38.301,1789340078.3019803,12
2026-09-13 19:54:38.309,1789340078.3096726,2
2026-09-13 19:54:38.317,1789340078.317365,24
2026-09-13 19:54:38.325,1789340078.3250573,201
2026-09-13 19:54:38.332,1789340078.3327496,615
2026-09-13 19:54:38.340,1789340078.340442,1091
2026-09-13 19:54:38.348,1789340078.3481343,1205
2026-09-13 19:54:38.355,1789340078.3558264,615
2026-09-13 19:54:38.363,1789340078.3635187,-155
2026-09-13 19:54:38.371,1789340078.371211,-259
2026-09-13 19:54:38.378,1789340078.378372,-26
2026-09-13 19:54:38.386,1789340078.3860643,-80
2026-09-13 19:54:38.393,1789340078.3937566,-155
2026-09-13 19:54:38.401,1789340078.401449,-82
2026-09-13 19:54:38.409,1789340078.4091413,-75
2026-09-13 19:54:38.416,1789340078.4168334,-97
2026-09-13 19:54:38.424,1789340078.4245257,-58
2026-09-13 19:54:38.432,1789340078.432218,-43
2026-09-13 19:54:38.439,1789340078.4399104,-60
2026-09-13 19:54:38.447,1789340078.4476027,-50
2026-09-13 19:54:38.455,1789340078.455295,-36
2026-09-13 19:54:38.462,1789340078.4629874,-33
2026-09-13 19:54:38.470,1789340078.4706798,-24
2026-09-13 19:54:38.478,1789340078.4783719,-14
2026-09-13 19:54:38.486,1789340078.4860642,-4
2026-09-13 19:54:38.493,1789340078.4937565,7
2026-09-13 19:54:38.501,1789340078.5014489,7
2026-09-13 19:54:38.509,1789340078.5091412,19
2026-09-13 19:54:38.516,1789340078.5168335,43
2026-09-13 19:54:38.524,1789340078.524526,55
2026-09-13 19:54:38.532,1789340078.5322182,72
2026-09-13 19:54:38.539,1789340078.5399103,101
2026-09-13 19:54:38.547,1789340078.5476027,111
2026-09-13 19:54:38.555,1789340078.555295,126
2026-09-13 19:54:38.562,1789340078.5629873,167
2026-09-13 19:54:38.570,1789340078.5706797,198
2026-09-13 19:54:38.578,1789340078.578372,198
2026-09-13 19:54:38.586,1789340078.5860643,196
2026-09-13 19:54:38.593,1789340078.5937567,203
2026-09-13 19:54:38.601,1789340078.6014488,186
2026-09-13 19:54:38.609,1789340078.609141,118
2026-09-13 19:54:38.616,1789340078.6168334,38
2026-09-13 19:54:38.624,1789340078.6245258,-9
2026-09-13 19:54:38.632,1789340078.6322181,-36
2026-09-13 19:54:38.639,1789340078.6399105,-67
2026-09-13 19:54:38.647,1789340078.6476028,-104
2026-09-13 19:54:38.655,1789340078.6552951,-116
2026-09-13 19:54:38.662,1789340078.6629872,-99
2026-09-13 19:54:38.670,1789340078.6706796,-97
2026-09-13 19:54:38.678,1789340078.678372,-94
2026-09-13 19:54:38.686,1789340078.6860642,-80
2026-09-13 19:54:38.693,1789340078.6937566,-77
2026-09-13 19:54:38.701,1789340078.701449,-75
2026-09-13 19:54:38.709,1789340078.7091413,-63
2026-09-13 19:54:38.716,1789340078.7168336,-65
2026-09-13 19:54:38.724,1789340078.7245257,-70
2026-09-13 19:54:38.732,1789340078.732218,-58
2026-09-13 19:54:38.739,1789340078.7399104,-46
2026-09-13 19:54:38.747,1789340078.7476027,-43
2026-09-13 19:54:38.755,1789340078.755295,-48
2026-09-13 19:54:38.762,1789340078.7629874,-60
2026-09-13 19:54:38.770,1789340078.7706797,-60
2026-09-13 19:54:38.778,1789340078.778372,-26
2026-09-13 19:54:38.786,1789340078.7860641,-9
2026-09-13 19:54:38.793,1789340078.7937565,-31
2026-09-13 19:54:38.801,1789340078.8014488,-46
2026-09-13 19:54:38.809,1789340078.8091412,-29
2026-09-13 19:54:38.816,1789340078.8168335,-14
2026-09-13 19:54:38.824,1789340078.8245258,-16
2026-09-13 19:54:38.832,1789340078.8322182,-16
2026-09-13 19:54:38.839,1789340078.8399105,-16
2026-09-13 19:54:38.847,1789340078.8476026,-19
2026-09-13 19:54:38.855,1789340078.855295,-21
2026-09-13 19:54:38.862,1789340078.8629873,-14
2026-09-13 19:54:38.870,1789340078.8706796,-12
2026-09-13 19:54:38.878,1789340078.878372,-16
2026-09-13 19:54:38.886,1789340078.8860643,-19
2026-09-13 19:54:38.893,1789340078.8937566,-9
2026-09-13 19:54:38.901,1789340078.901449,-2
2026-09-13 19:54:38.909,1789340078.9091413,-9
2026-09-13 19:54:38.916,1789340078.9168334,-12
2026-09-13 19:54:38.924,1789340078.9245257,-12
2026-09-13 19:54:38.932,1789340078.932218,-16
2026-09-13 19:54:38.939,1789340078.9393795,-21
2026-09-13 19:54:38.947,1789340078.9470718,-14
2026-09-13 19:54:38.954,1789340078.9547641,2
2026-09-13 19:54:38.962,1789340078.9624565,21
2026-09-13 19:54:38.970,1789340078.9701488,38
2026-09-13 19:54:38.977,1789340078.977841,50
2026-09-13 19:54:38.985,1789340078.9855332,43
2026-09-13 19:54:38.993,1789340078.9932256,26
2026-09-13 19:54:39.000,1789340079.000918,26
2026-09-13 19:54:39.008,1789340079.0086102,31
2026-09-13 19:54:39.016,1789340079.0163026,24
2026-09-13 19:54:39.023,1789340079.023995,4
2026-09-13 19:54:39.031,1789340079.0316873,-7
2026-09-13 19:54:39.039,1789340079.0393794,0
2026-09-13 19:54:39.047,1789340079.0470717,12
2026-09-13 19:54:39.054,1789340079.054764,9
2026-09-13 19:54:39.062,1789340079.0624564,4
2026-09-13 19:54:39.070,1789340079.0701487,9
2026-09-13 19:54:39.077,1789340079.077841,12
2026-09-13 19:54:39.085,1789340079.0855334,-2
2026-09-13 19:54:39.093,1789340079.0932257,-12
2026-09-13 19:54:39.100,1789340079.1009178,38
2026-09-13 19:54:39.108,1789340079.1086102,249
2026-09-13 19:54:39.116,1789340079.1163025,642
2026-09-13 19:54:39.123,1789340079.1239948,1057
2026-09-13 19:54:39.131,1789340079.1316872,1059
2026-09-13 19:54:39.139,1789340079.1393795,390
2026-09-13 19:54:39.147,1789340079.1470718,-230
2026-09-13 19:54:39.154,1789340079.1547642,-164
2026-09-13 19:54:39.162,1789340079.1624563,12
2026-09-13 19:54:39.170,1789340079.1701486,-92
2026-09-13 19:54:39.177,1789340079.177841,-118
2026-09-13 19:54:39.185,1789340079.1855333,-50
2026-09-13 19:54:39.193,1789340079.1932256,-58
2026-09-13 19:54:39.200,1789340079.200918,-63
2026-09-13 19:54:39.208,1789340079.2086103,-43
2026-09-13 19:54:39.216,1789340079.2163026,-55
2026-09-13 19:54:39.223,1789340079.2239947,-65
2026-09-13 19:54:39.231,1789340079.231687,-36
2026-09-13 19:54:39.239,1789340079.2393794,-4
2026-09-13 19:54:39.247,1789340079.2470717,7
2026-09-13 19:54:39.254,1789340079.254764,21
2026-09-13 19:54:39.262,1789340079.2624564,29
2026-09-13 19:54:39.270,1789340079.2701488,24
2026-09-13 19:54:39.277,1789340079.277841,26
2026-09-13 19:54:39.285,1789340079.2855332,36
2026-09-13 19:54:39.293,1789340079.2932255,50
2026-09-13 19:54:39.300,1789340079.3009179,84
2026-09-13 19:54:39.308,1789340079.3086102,111
2026-09-13 19:54:39.316,1789340079.3163025,111
2026-09-13 19:54:39.323,1789340079.3239949,123
2026-09-13 19:54:39.331,1789340079.3316872,152
2026-09-13 19:54:39.339,1789340079.3393795,167
2026-09-13 19:54:39.347,1789340079.3470716,181
2026-09-13 19:54:39.354,1789340079.354764,240
2026-09-13 19:54:39.362,1789340079.3624563,298
2026-09-13 19:54:39.370,1789340079.3701487,276
2026-09-13 19:54:39.377,1789340079.377841,218
2026-09-13 19:54:39.385,1789340079.3855333,206
2026-09-13 19:54:39.393,1789340079.3932257,172
2026-09-13 19:54:39.400,1789340079.400918,82
2026-09-13 19:54:39.408,1789340079.40861,19
2026-09-13 19:54:39.416,1789340079.4163024,-9
2026-09-13 19:54:39.423,1789340079.4239948,-41
2026-09-13 19:54:39.431,1789340079.431687,-67
2026-09-13 19:54:39.439,1789340079.4393795,-77
2026-09-13 19:54:39.447,1789340079.4470718,-72
2026-09-13 19:54:39.454,1789340079.4547641,-67
2026-09-13 19:54:39.462,1789340079.4624565,-75
2026-09-13 19:54:39.470,1789340079.4701488,-63
2026-09-13 19:54:39.477,1789340079.477841,-36
2026-09-13 19:54:39.485,1789340079.4855332,-38
2026-09-13 19:54:39.493,1789340079.4932256,-48
2026-09-13 19:54:39.500,1789340079.5003614,-33
2026-09-13 19:54:39.508,1789340079.5080538,-24
2026-09-13 19:54:39.515,1789340079.515746,-19
2026-09-13 19:54:39.523,1789340079.5234385,-9
2026-09-13 19:54:39.531,1789340079.5311308,-9
2026-09-13 19:54:39.538,1789340079.538823,-14
2026-09-13 19:54:39.546,1789340079.5465152,-19
2026-09-13 19:54:39.554,1789340079.5542076,-16
2026-09-13 19:54:39.561,1789340079.5619,-9
2026-09-13 19:54:39.569,1789340079.5695922,-7
2026-09-13 19:54:39.577,1789340079.5772846,-4
2026-09-13 19:54:39.584,1789340079.584977,-4
2026-09-13 19:54:39.592,1789340079.5926692,-12
2026-09-13 19:54:39.600,1789340079.6003613,-4
2026-09-13 19:54:39.608,1789340079.6080537,16
2026-09-13 19:54:39.615,1789340079.615746,26
2026-09-13 19:54:39.623,1789340079.6234384,19
2026-09-13 19:54:39.631,1789340079.6311307,9
2026-09-13 19:54:39.638,1789340079.638823,9
2026-09-13 19:54:39.646,1789340079.6465154,9
2026-09-13 19:54:39.654,1789340079.6542077,14
2026-09-13 19:54:39.661,1789340079.6618998,19
2026-09-13 19:54:39.669,1789340079.6695921,24
2026-09-13 19:54:39.677,1789340079.6772845,24
2026-09-13 19:54:39.684,1789340079.6849768,16
2026-09-13 19:54:39.692,1789340079.6926692,14
2026-09-13 19:54:39.700,1789340079.7003615,16
2026-09-13 19:54:39.708,1789340079.7080538,4
2026-09-13 19:54:39.715,1789340079.7157462,-9
2026-09-13 19:54:39.723,1789340079.7234383,4
2026-09-13 19:54:39.731,1789340079.7311306,46
2026-09-13 19:54:39.738,1789340079.738823,63
2026-09-13 19:54:39.746,1789340079.7465153,53
2026-09-13 19:54:39.754,1789340079.7542076,72
2026-09-13 19:54:39.761,1789340079.7619,106
2026-09-13 19:54:39.769,1789340079.7695923,87
2026-09-13 19:54:39.777,1789340079.7772846,55
2026-09-13 19:54:39.784,1789340079.7849767,53
2026-09-13 19:54:39.792,1789340079.792669,43
2026-09-13 19:54:39.800,1789340079.8003614,12
2026-09-13 19:54:39.808,1789340079.8080537,-2
2026-09-13 19:54:39.815,1789340079.815746,9
2026-09-13 19:54:39.823,1789340079.8234384,29
2026-09-13 19:54:39.831,1789340079.8311307,41
2026-09-13 19:54:39.838,1789340079.838823,43
2026-09-13 19:54:39.846,1789340079.8465152,41
2026-09-13 19:54:39.854,1789340079.8542075,31
2026-09-13 19:54:39.861,1789340079.8618999,26
2026-09-13 19:54:39.869,1789340079.8695922,21
2026-09-13 19:54:39.877,1789340079.8772845,43
2026-09-13 19:54:39.884,1789340079.8849769,203
2026-09-13 19:54:39.892,1789340079.8926692,577
2026-09-13 19:54:39.900,1789340079.9003615,1035
2026-09-13 19:54:39.908,1789340079.9080536,1151
2026-09-13 19:54:39.915,1789340079.915746,509
2026-09-13 19:54:39.923,1789340079.9234383,-324
2026-09-13 19:54:39.931,1789340079.9311306,-351
2026-09-13 19:54:39.938,1789340079.938823,7
2026-09-13 19:54:39.946,1789340079.9465153,-4
2026-09-13 19:54:39.954,1789340079.9542077,-75
2026-09-13 19:54:39.961,1789340079.9619,-4
2026-09-13 19:54:39.969,1789340079.969592,-9
2026-09-13 19:54:39.977,1789340079.9772844,-31
2026-09-13 19:54:39.984,1789340079.9849768,12
2026-09-13 19:54:39.992,1789340079.992669,36
2026-09-13 19:54:40.000,1789340080.0003614,26
2026-09-13 19:54:40.008,1789340080.0080538,26
2026-09-13 19:54:40.015,1789340080.015746,38
2026-09-13 19:54:40.023,1789340080.0234385,50
2026-09-13 19:54:40.031,1789340080.0311308,60
2026-09-13 19:54:40.038,1789340080.038823,67
2026-09-13 19:54:40.046,1789340080.0465152,80
2026-09-13 19:54:40.054,1789340080.0542076,87
2026-09-13 19:54:40.061,1789340080.0613637,99
2026-09-13 19:54:40.069,1789340080.069056,121
2026-09-13 19:54:40.076,1789340080.0767484,140
2026-09-13 19:54:40.084,1789340080.0844407,157
2026-09-13 19:54:40.092,1789340080.092133,179
2026-09-13 19:54:40.099,1789340080.0998251,213
2026-09-13 19:54:40.107,1789340080.1075175,247
2026-09-13 19:54:40.115,1789340080.1152098,264
2026-09-13 19:54:40.122,1789340080.1229022,293
2026-09-13 19:54:40.130,1789340080.1305945,334
2026-09-13 19:54:40.138,1789340080.1382868,358
2026-09-13 19:54:40.145,1789340080.1459792,354
2026-09-13 19:54:40.153,1789340080.1536715,307
2026-09-13 19:54:40.161,1789340080.1613636,235
2026-09-13 19:54:40.169,1789340080.169056,162
2026-09-13 19:54:40.176,1789340080.1767483,89
2026-09-13 19:54:40.184,1789340080.1844406,29
2026-09-13 19:54:40.192,1789340080.192133,-24
2026-09-13 19:54:40.199,1789340080.1998253,-77
2026-09-13 19:54:40.207,1789340080.2075176,-104
2026-09-13 19:54:40.215,1789340080.21521,-104
2026-09-13 19:54:40.222,1789340080.222902,-111
2026-09-13 19:54:40.230,1789340080.2305944,-130
2026-09-13 19:54:40.238,1789340080.2382867,-128
2026-09-13 19:54:40.245,1789340080.245979,-106
2026-09-13 19:54:40.253,1789340080.2536714,-87
2026-09-13 19:54:40.261,1789340080.2613637,-72
2026-09-13 19:54:40.269,1789340080.269056,-58
2026-09-13 19:54:40.276,1789340080.2767484,-58
2026-09-13 19:54:40.284,1789340080.2844405,-65
2026-09-13 19:54:40.292,1789340080.2921329,-50
2026-09-13 19:54:40.299,1789340080.2998252,-29
2026-09-13 19:54:40.307,1789340080.3075175,-31
2026-09-13 19:54:40.315,1789340080.3152099,-41
2026-09-13 19:54:40.322,1789340080.3229022,-41
2026-09-13 19:54:40.330,1789340080.3305945,-33
2026-09-13 19:54:40.338,1789340080.3382869,-24
2026-09-13 19:54:40.345,1789340080.345979,-16
2026-09-13 19:54:40.353,1789340080.3536713,-29
2026-09-13 19:54:40.361,1789340080.3613636,-43
2026-09-13 19:54:40.369,1789340080.369056,-26
2026-09-13 19:54:40.376,1789340080.3767483,-9
2026-09-13 19:54:40.384,1789340080.3844407,-26
2026-09-13 19:54:40.392,1789340080.392133,-24
2026-09-13 19:54:40.399,1789340080.3998253,7
2026-09-13 19:54:40.407,1789340080.4075174,16
2026-09-13 19:54:40.415,1789340080.4152098,2
2026-09-13 19:54:40.422,1789340080.422902,0
2026-09-13 19:54:40.430,1789340080.4305944,7
2026-09-13 19:54:40.438,1789340080.4382868,2
2026-09-13 19:54:40.445,1789340080.445979,-16
2026-09-13 19:54:40.453,1789340080.4536715,-12
2026-09-13 19:54:40.461,1789340080.4613638,14
2026-09-13 19:54:40.469,1789340080.469056,36
2026-09-13 19:54:40.476,1789340080.4767482,46
2026-09-13 19:54:40.484,1789340080.4844406,65
2026-09-13 19:54:40.492,1789340080.492133,92
2026-09-13 19:54:40.499,1789340080.4998252,104
2026-09-13 19:54:40.507,1789340080.5075176,84
2026-09-13 19:54:40.515,1789340080.51521,53
2026-09-13 19:54:40.522,1789340080.5229023,41
2026-09-13 19:54:40.530,1789340080.5305943,48
2026-09-13 19:54:40.538,1789340080.5382867,48
2026-09-13 19:54:40.545,1789340080.545979,33
2026-09-13 19:54:40.553,1789340080.5536714,31
2026-09-13 19:54:40.561,1789340080.5613637,48
2026-09-13 19:54:40.569,1789340080.569056,50
2026-09-13 19:54:40.576,1789340080.5767484,48
2026-09-13 19:54:40.584,1789340080.5844407,55
2026-09-13 19:54:40.592,1789340080.592133,55
2026-09-13 19:54:40.599,1789340080.5998251,53
2026-09-13 19:54:40.607,1789340080.6075175,130
2026-09-13 19:54:40.615,1789340080.6152098,419
2026-09-13 19:54:40.622,1789340080.622366,916
2026-09-13 19:54:40.630,1789340080.6300583,1302
2026-09-13 19:54:40.637,1789340080.6377506,1030
2026-09-13 19:54:40.645,1789340080.645443,130
2026-09-13 19:54:40.653,1789340080.6531353,-349
2026-09-13 19:54:40.660,1789340080.6608274,-80
2026-09-13 19:54:40.668,1789340080.6685197,67
2026-09-13 19:54:40.676,1789340080.676212,-72
2026-09-13 19:54:40.683,1789340080.6839044,-63
2026-09-13 19:54:40.691,1789340080.6915967,7
2026-09-13 19:54:40.699,1789340080.699289,-19
2026-09-13 19:54:40.706,1789340080.7069814,-19
2026-09-13 19:54:40.714,1789340080.7146738,12
2026-09-13 19:54:40.722,1789340080.7223659,12
2026-09-13 19:54:40.730,1789340080.7300582,7
2026-09-13 19:54:40.737,1789340080.7377505,16
2026-09-13 19:54:40.745,1789340080.7454429,24
2026-09-13 19:54:40.753,1789340080.7531352,33
2026-09-13 19:54:40.760,1789340080.7608275,53
2026-09-13 19:54:40.768,1789340080.7685199,80
2026-09-13 19:54:40.776,1789340080.7762122,84
2026-09-13 19:54:40.783,1789340080.7839043,77
2026-09-13 19:54:40.791,1789340080.7915967,89
2026-09-13 19:54:40.799,1789340080.799289,113
2026-09-13 19:54:40.806,1789340080.8069813,133
2026-09-13 19:54:40.814,1789340080.8146737,150
2026-09-13 19:54:40.822,1789340080.822366,169
2026-09-13 19:54:40.830,1789340080.8300583,191
2026-09-13 19:54:40.837,1789340080.8377507,225
2026-09-13 19:54:40.845,1789340080.8454428,247
2026-09-13 19:54:40.853,1789340080.853135,261
2026-09-13 19:54:40.860,1789340080.8608274,300
2026-09-13 19:54:40.868,1789340080.8685198,337
2026-09-13 19:54:40.876,1789340080.8762121,324
2026-09-13 19:54:40.883,1789340080.8839045,276
2026-09-13 19:54:40.891,1789340080.8915968,220
2026-09-13 19:54:40.899,1789340080.8992891,152
2026-09-13 19:54:40.906,1789340080.9069812,80
2026-09-13 19:54:40.914,1789340080.9146736,21
2026-09-13 19:54:40.922,1789340080.922366,-14
2026-09-13 19:54:40.930,1789340080.9300582,-36
2026-09-13 19:54:40.937,1789340080.9377506,-53
2026-09-13 19:54:40.945,1789340080.945443,-65
2026-09-13 19:54:40.953,1789340080.9531353,-48
2026-09-13 19:54:40.960,1789340080.9608276,-21
2026-09-13 19:54:40.968,1789340080.9685197,-21
2026-09-13 19:54:40.976,1789340080.976212,-31
2026-09-13 19:54:40.983,1789340080.9839044,-24
2026-09-13 19:54:40.991,1789340080.9915967,-4
2026-09-13 19:54:40.999,1789340080.999289,7
2026-09-13 19:54:41.006,1789340081.0069814,2
2026-09-13 19:54:41.014,1789340081.0146737,0
2026-09-13 19:54:41.022,1789340081.022366,12
2026-09-13 19:54:41.030,1789340081.0300581,24
2026-09-13 19:54:41.037,1789340081.0377505,16
2026-09-13 19:54:41.045,1789340081.0454428,9
2026-09-13 19:54:41.053,1789340081.0531352,33
2026-09-13 19:54:41.060,1789340081.0608275,60
2026-09-13 19:54:41.068,1789340081.0685198,48
2026-09-13 19:54:41.076,1789340081.0762122,33
2026-09-13 19:54:41.083,1789340081.0839045,46
2026-09-13 19:54:41.091,1789340081.0915966,53
2026-09-13 19:54:41.099,1789340081.099289,50
2026-09-13 19:54:41.106,1789340081.1069813,50
2026-09-13 19:54:41.114,1789340081.1146736,53
2026-09-13 19:54:41.122,1789340081.122366,53
2026-09-13 19:54:41.130,1789340081.1300583,58
2026-09-13 19:54:41.137,1789340081.1377506,63
2026-09-13 19:54:41.145,1789340081.145443,60
2026-09-13 19:54:41.153,1789340081.1531353,60
2026-09-13 19:54:41.160,1789340081.1608274,55
2026-09-13 19:54:41.168,1789340081.1685197,46
2026-09-13 19:54:41.176,1789340081.176212,55
2026-09-13 19:54:41.183,1789340081.1833477,70
2026-09-13 19:54:41.191,1789340081.19104,65
2026-09-13 19:54:41.198,1789340081.1987324,65
2026-09-13 19:54:41.206,1789340081.2064247,63
2026-09-13 19:54:41.214,1789340081.214117,48
2026-09-13 19:54:41.221,1789340081.2218091,60
2026-09-13 19:54:41.229,1789340081.2295015,87
2026-09-13 19:54:41.237,1789340081.2371938,92
2026-09-13 19:54:41.244,1789340081.2448862,97
2026-09-13 19:54:41.252,1789340081.2525785,111
2026-09-13 19:54:41.260,1789340081.2602708,106
2026-09-13 19:54:41.267,1789340081.2679632,99
2026-09-13 19:54:41.275,1789340081.2756555,89
2026-09-13 19:54:41.283,1789340081.2833476,70
2026-09-13 19:54:41.291,1789340081.29104,70
2026-09-13 19:54:41.298,1789340081.2987323,84
2026-09-13 19:54:41.306,1789340081.3064246,80
2026-09-13 19:54:41.314,1789340081.314117,63
2026-09-13 19:54:41.321,1789340081.3218093,55
2026-09-13 19:54:41.329,1789340081.3295016,58
2026-09-13 19:54:41.337,1789340081.337194,67
2026-09-13 19:54:41.344,1789340081.344886,72
2026-09-13 19:54:41.352,1789340081.3525784,63
2026-09-13 19:54:41.360,1789340081.3602707,50
2026-09-13 19:54:41.367,1789340081.367963,80
2026-09-13 19:54:41.375,1789340081.3756554,278
2026-09-13 19:54:41.383,1789340081.3833477,715
2026-09-13 19:54:41.391,1789340081.39104,1183
2026-09-13 19:54:41.398,1789340081.3987324,1202
2026-09-13 19:54:41.406,1789340081.4064245,514
2026-09-13 19:54:41.414,1789340081.4141169,-179
2026-09-13 19:54:41.421,1789340081.4218092,-167
2026-09-13 19:54:41.429,1789340081.4295015,26
2026-09-13 19:54:41.437,1789340081.4371939,-58
2026-09-13 19:54:41.444,1789340081.4448862,-92
2026-09-13 19:54:41.452,1789340081.4525785,-16
2026-09-13 19:54:41.460,1789340081.460271,-24
2026-09-13 19:54:41.467,1789340081.467963,-46
2026-09-13 19:54:41.475,1789340081.4756553,-21
2026-09-13 19:54:41.483,1789340081.4833477,-16
2026-09-13 19:54:41.491,1789340081.49104,-26
2026-09-13 19:54:41.498,1789340081.4987323,-9
2026-09-13 19:54:41.506,1789340081.5064247,24
2026-09-13 19:54:41.514,1789340081.514117,29
2026-09-13 19:54:41.521,1789340081.5218093,16
2026-09-13 19:54:41.529,1789340081.5295014,24
2026-09-13 19:54:41.537,1789340081.5371938,41
2026-09-13 19:54:41.544,1789340081.544886,46
2026-09-13 19:54:41.552,1789340081.5525784,53
2026-09-13 19:54:41.560,1789340081.5602708,70
2026-09-13 19:54:41.567,1789340081.5679631,80
2026-09-13 19:54:41.575,1789340081.5756555,89
2026-09-13 19:54:41.583,1789340081.5833478,106
2026-09-13 19:54:41.591,1789340081.59104,135
2026-09-13 19:54:41.598,1789340081.5987322,172
2026-09-13 19:54:41.606,1789340081.6064246,196
2026-09-13 19:54:41.614,1789340081.614117,198
2026-09-13 19:54:41.621,1789340081.6218092,218
2026-09-13 19:54:41.629,1789340081.6295016,247
2026-09-13 19:54:41.637,1789340081.637194,247
2026-09-13 19:54:41.644,1789340081.6448863,227
2026-09-13 19:54:41.652,1789340081.6525784,208
2026-09-13 19:54:41.660,1789340081.6602707,162
2026-09-13 19:54:41.667,1789340081.667963,89
2026-09-13 19:54:41.675,1789340081.6756554,29
2026-09-13 19:54:41.683,1789340081.6833477,-9
2026-09-13 19:54:41.691,1789340081.69104,-38
2026-09-13 19:54:41.698,1789340081.6987324,-50
2026-09-13 19:54:41.706,1789340081.7064247,-55
2026-09-13 19:54:41.714,1789340081.714117,-60
2026-09-13 19:54:41.721,1789340081.7218091,-60
2026-09-13 19:54:41.729,1789340081.7295015,-50
2026-09-13 19:54:41.737,1789340081.7371938,-50
2026-09-13 19:54:41.744,1789340081.74437,-43
2026-09-13 19:54:41.752,1789340081.7520623,-26
2026-09-13 19:54:41.759,1789340081.7597547,-21
2026-09-13 19:54:41.767,1789340081.767447,-31
2026-09-13 19:54:41.775,1789340081.7751393,-31
2026-09-13 19:54:41.782,1789340081.7828314,-16
2026-09-13 19:54:41.790,1789340081.7905238,-9
2026-09-13 19:54:41.798,1789340081.798216,-2
2026-09-13 19:54:41.805,1789340081.8059084,4
2026-09-13 19:54:41.813,1789340081.8136008,-2
2026-09-13 19:54:41.821,1789340081.821293,-7
2026-09-13 19:54:41.828,1789340081.8289855,0
2026-09-13 19:54:41.836,1789340081.8366778,7
2026-09-13 19:54:41.844,1789340081.84437,2
2026-09-13 19:54:41.852,1789340081.8520622,-2
2026-09-13 19:54:41.859,1789340081.8597546,2
2026-09-13 19:54:41.867,1789340081.867447,12
2026-09-13 19:54:41.875,1789340081.8751392,16
2026-09-13 19:54:41.882,1789340081.8828316,7
2026-09-13 19:54:41.890,1789340081.890524,-2
2026-09-13 19:54:41.898,1789340081.8982162,4
2026-09-13 19:54:41.905,1789340081.9059083,16
2026-09-13 19:54:41.913,1789340081.9136007,21
2026-09-13 19:54:41.921,1789340081.921293,16
2026-09-13 19:54:41.928,1789340081.9289854,9
2026-09-13 19:54:41.936,1789340081.9366777,12
2026-09-13 19:54:41.944,1789340081.94437,12
2026-09-13 19:54:41.952,1789340081.9520624,7
2026-09-13 19:54:41.959,1789340081.9597547,7
2026-09-13 19:54:41.967,1789340081.9674468,12
2026-09-13 19:54:41.975,1789340081.9751391,19
2026-09-13 19:54:41.982,1789340081.9828315,19
2026-09-13 19:54:41.990,1789340081.9905238,7
2026-09-13 19:54:41.998,1789340081.9982162,0
2026-09-13 19:54:42.005,1789340082.0059085,7
2026-09-13 19:54:42.013,1789340082.0136008,9
2026-09-13 19:54:42.021,1789340082.0212932,2
2026-09-13 19:54:42.028,1789340082.0289853,7
2026-09-13 19:54:42.036,1789340082.0366776,24
2026-09-13 19:54:42.044,1789340082.04437,48
2026-09-13 19:54:42.052,1789340082.0520623,75
2026-09-13 19:54:42.059,1789340082.0597546,72
2026-09-13 19:54:42.067,1789340082.067447,55
2026-09-13 19:54:42.075,1789340082.0751393,53
2026-09-13 19:54:42.082,1789340082.0828316,60
2026-09-13 19:54:42.090,1789340082.0905237,48
2026-09-13 19:54:42.098,1789340082.098216,24
2026-09-13 19:54:42.105,1789340082.1059084,14
2026-09-13 19:54:42.113,1789340082.1136007,9
2026-09-13 19:54:42.121,1789340082.121293,7
2026-09-13 19:54:42.128,1789340082.1289854,14
2026-09-13 19:54:42.136,1789340082.1366777,26
2026-09-13 19:54:42.144,1789340082.14437,21
2026-09-13 19:54:42.152,1789340082.1520622,12
2026-09-13 19:54:42.159,1789340082.1597545,26
2026-09-13 19:54:42.167,1789340082.1674469,21
2026-09-13 19:54:42.175,1789340082.1751392,9
2026-09-13 19:54:42.182,1789340082.1828315,145
2026-09-13 19:54:42.190,1789340082.1905239,502
2026-09-13 19:54:42.198,1789340082.1982162,950
2026-09-13 19:54:42.205,1789340082.2059085,1181
2026-09-13 19:54:42.213,1789340082.2136006,737
2026-09-13 19:54:42.221,1789340082.221293,-80
2026-09-13 19:54:42.228,1789340082.2289853,-269
2026-09-13 19:54:42.236,1789340082.2366776,2
2026-09-13 19:54:42.244,1789340082.24437,-33
2026-09-13 19:54:42.252,1789340082.2520623,-140
2026-09-13 19:54:42.259,1789340082.2597547,-50
2026-09-13 19:54:42.267,1789340082.267447,-26
2026-09-13 19:54:42.275,1789340082.2751393,-60
2026-09-13 19:54:42.282,1789340082.2828314,-29
2026-09-13 19:54:42.290,1789340082.2905238,-19
2026-09-13 19:54:42.298,1789340082.298216,-46
2026-09-13 19:54:42.305,1789340082.3053622,-29
2026-09-13 19:54:42.313,1789340082.3130546,2
2026-09-13 19:54:42.320,1789340082.320747,12
2026-09-13 19:54:42.328,1789340082.3284392,21
2026-09-13 19:54:42.336,1789340082.3361316,33
2026-09-13 19:54:42.343,1789340082.3438237,33
2026-09-13 19:54:42.351,1789340082.351516,36
2026-09-13 19:54:42.359,1789340082.3592083,60
2026-09-13 19:54:42.366,1789340082.3669007,87
2026-09-13 19:54:42.374,1789340082.374593,84
2026-09-13 19:54:42.382,1789340082.3822854,77
2026-09-13 19:54:42.389,1789340082.3899777,109
2026-09-13 19:54:42.397,1789340082.39767,155
2026-09-13 19:54:42.405,1789340082.4053621,179
2026-09-13 19:54:42.413,1789340082.4130545,194
2026-09-13 19:54:42.420,1789340082.4207468,213
2026-09-13 19:54:42.428,1789340082.4284391,240
2026-09-13 19:54:42.436,1789340082.4361315,261
2026-09-13 19:54:42.443,1789340082.4438238,269
2026-09-13 19:54:42.451,1789340082.4515162,252
2026-09-13 19:54:42.459,1789340082.4592085,225
2026-09-13 19:54:42.466,1789340082.4669006,177
2026-09-13 19:54:42.474,1789340082.474593,104
2026-09-13 19:54:42.482,1789340082.4822853,38
2026-09-13 19:54:42.489,1789340082.4899776,-12
2026-09-13 19:54:42.497,1789340082.49767,-53
2026-09-13 19:54:42.505,1789340082.5053623,-67
2026-09-13 19:54:42.513,1789340082.5130546,-65
2026-09-13 19:54:42.520,1789340082.520747,-77
2026-09-13 19:54:42.528,1789340082.528439,-92
2026-09-13 19:54:42.536,1789340082.5361314,-80
2026-09-13 19:54:42.543,1789340082.5438237,-53
2026-09-13 19:54:42.551,1789340082.551516,-50
2026-09-13 19:54:42.559,1789340082.5592084,-63
2026-09-13 19:54:42.566,1789340082.5669007,-58
2026-09-13 19:54:42.574,1789340082.574593,-33
2026-09-13 19:54:42.582,1789340082.5822854,-29
2026-09-13 19:54:42.589,1789340082.5899775,-31
2026-09-13 19:54:42.597,1789340082.5976698,-31
2026-09-13 19:54:42.605,1789340082.6053622,-43
2026-09-13 19:54:42.613,1789340082.6130545,-43
2026-09-13 19:54:42.620,1789340082.6207469,-24
2026-09-13 19:54:42.628,1789340082.6284392,-12
2026-09-13 19:54:42.636,1789340082.6361315,-12
2026-09-13 19:54:42.643,1789340082.6438239,-14
2026-09-13 19:54:42.651,1789340082.651516,-24
2026-09-13 19:54:42.659,1789340082.6592083,-21
2026-09-13 19:54:42.666,1789340082.6669006,2
2026-09-13 19:54:42.674,1789340082.674593,2
2026-09-13 19:54:42.682,1789340082.6822853,-16
2026-09-13 19:54:42.689,1789340082.6899776,-16
2026-09-13 19:54:42.697,1789340082.69767,-12
2026-09-13 19:54:42.705,1789340082.7053623,-21
2026-09-13 19:54:42.713,1789340082.7130544,-29
2026-09-13 19:54:42.720,1789340082.7207468,-19
2026-09-13 19:54:42.728,1789340082.728439,2
2026-09-13 19:54:42.736,1789340082.7361314,14
2026-09-13 19:54:42.743,1789340082.7438238,9
2026-09-13 19:54:42.751,1789340082.751516,2
2026-09-13 19:54:42.759,1789340082.7592084,0
2026-09-13 19:54:42.766,1789340082.7669008,-4
2026-09-13 19:54:42.774,1789340082.7745929,-9
2026-09-13 19:54:42.782,1789340082.7822852,-12
2026-09-13 19:54:42.789,1789340082.7899776,-9
2026-09-13 19:54:42.797,1789340082.79767,-4
2026-09-13 19:54:42.805,1789340082.8053622,-16
2026-09-13 19:54:42.813,1789340082.8130546,-36
2026-09-13 19:54:42.820,1789340082.820747,-16
2026-09-13 19:54:42.828,1789340082.8284392,24
2026-09-13 19:54:42.836,1789340082.8361316,50
2026-09-13 19:54:42.843,1789340082.8438237,72
2026-09-13 19:54:42.851,1789340082.851516,87
2026-09-13 19:54:42.859,1789340082.8592083,58
2026-09-13 19:54:42.866,1789340082.8663695,31
2026-09-13 19:54:42.874,1789340082.8740618,36
2026-09-13 19:54:42.881,1789340082.8817542,19
2026-09-13 19:54:42.889,1789340082.8894465,-9
2026-09-13 19:54:42.897,1789340082.8971388,-16
2026-09-13 19:54:42.904,1789340082.904831,-7
2026-09-13 19:54:42.912,1789340082.9125233,4
2026-09-13 19:54:42.920,1789340082.9202156,0
2026-09-13 19:54:42.927,1789340082.927908,-16
2026-09-13 19:54:42.935,1789340082.9356003,-4
2026-09-13 19:54:42.943,1789340082.9432926,12
2026-09-13 19:54:42.950,1789340082.950985,7
2026-09-13 19:54:42.958,1789340082.9586773,7
2026-09-13 19:54:42.966,1789340082.9663694,43
2026-09-13 19:54:42.974,1789340082.9740617,223
2026-09-13 19:54:42.981,1789340082.981754,615
2026-09-13 19:54:42.989,1789340082.9894464,1050
2026-09-13 19:54:42.997,1789340082.9971387,1054
2026-09-13 19:54:43.004,1789340083.004831,303
2026-09-13 19:54:43.012,1789340083.0125234,-419
2026-09-13 19:54:43.020,1789340083.0202157,-283
2026-09-13 19:54:43.027,1789340083.0279078,16
2026-09-13 19:54:43.035,1789340083.0356002,-80
2026-09-13 19:54:43.043,1789340083.0432925,-118
2026-09-13 19:54:43.050,1789340083.0509849,-21
2026-09-13 19:54:43.058,1789340083.0586772,-19
2026-09-13 19:54:43.066,1789340083.0663695,-36
2026-09-13 19:54:43.074,1789340083.0740619,-19
2026-09-13 19:54:43.081,1789340083.0817542,-16
2026-09-13 19:54:43.089,1789340083.0894463,-14
2026-09-13 19:54:43.097,1789340083.0971386,7
2026-09-13 19:54:43.104,1789340083.104831,19
2026-09-13 19:54:43.112,1789340083.1125233,26
2026-09-13 19:54:43.120,1789340083.1202157,46
2026-09-13 19:54:43.127,1789340083.127908,53
2026-09-13 19:54:43.135,1789340083.1356003,48
2026-09-13 19:54:43.143,1789340083.1432927,60
2026-09-13 19:54:43.150,1789340083.1509848,77
2026-09-13 19:54:43.158,1789340083.158677,82
2026-09-13 19:54:43.166,1789340083.1663694,92
2026-09-13 19:54:43.174,1789340083.1740618,123
2026-09-13 19:54:43.181,1789340083.181754,160
2026-09-13 19:54:43.189,1789340083.1894464,198
2026-09-13 19:54:43.197,1789340083.1971388,225
2026-09-13 19:54:43.204,1789340083.2048311,230
2026-09-13 19:54:43.212,1789340083.2125232,254
2026-09-13 19:54:43.220,1789340083.2202156,307
2026-09-13 19:54:43.227,1789340083.227908,327
2026-09-13 19:54:43.235,1789340083.2356002,295
2026-09-13 19:54:43.243,1789340083.2432926,259
2026-09-13 19:54:43.250,1789340083.250985,213
2026-09-13 19:54:43.258,1789340083.2586772,121
2026-09-13 19:54:43.266,1789340083.2663696,21
2026-09-13 19:54:43.274,1789340083.2740617,-31
2026-09-13 19:54:43.281,1789340083.281754,-77
2026-09-13 19:54:43.289,1789340083.2894464,-128
2026-09-13 19:54:43.297,1789340083.2971387,-130
2026-09-13 19:54:43.304,1789340083.304831,-116
2026-09-13 19:54:43.312,1789340083.3125234,-140
2026-09-13 19:54:43.320,1789340083.3202157,-160
2026-09-13 19:54:43.327,1789340083.327908,-133
2026-09-13 19:54:43.335,1789340083.3356001,-99
2026-09-13 19:54:43.343,1789340083.3432925,-97
2026-09-13 19:54:43.350,1789340083.3509848,-109
2026-09-13 19:54:43.358,1789340083.3586771,-99
2026-09-13 19:54:43.366,1789340083.3663695,-87
2026-09-13 19:54:43.374,1789340083.3740618,-87
2026-09-13 19:54:43.381,1789340083.3817542,-84
2026-09-13 19:54:43.389,1789340083.3894465,-77
2026-09-13 19:54:43.397,1789340083.3971388,-70
2026-09-13 19:54:43.404,1789340083.404831,-55
2026-09-13 19:54:43.412,1789340083.4125233,-55
2026-09-13 19:54:43.420,1789340083.4202156,-58
2026-09-13 19:54:43.427,1789340083.4273767,-46
2026-09-13 19:54:43.435,1789340083.435069,-33
2026-09-13 19:54:43.442,1789340083.4427614,-33
2026-09-13 19:54:43.450,1789340083.4504538,-36
2026-09-13 19:54:43.458,1789340083.458146,-31
2026-09-13 19:54:43.465,1789340083.4658382,-29
2026-09-13 19:54:43.473,1789340083.4735305,-31
2026-09-13 19:54:43.481,1789340083.4812229,-24
2026-09-13 19:54:43.488,1789340083.4889152,-21
2026-09-13 19:54:43.496,1789340083.4966075,-26
2026-09-13 19:54:43.504,1789340083.5042999,-12
2026-09-13 19:54:43.511,1789340083.5119922,4
2026-09-13 19:54:43.519,1789340083.5196846,-4
2026-09-13 19:54:43.527,1789340083.5273767,-24
2026-09-13 19:54:43.535,1789340083.535069,-26
2026-09-13 19:54:43.542,1789340083.5427613,-12
2026-09-13 19:54:43.550,1789340083.5504537,14
2026-09-13 19:54:43.558,1789340083.558146,24
2026-09-13 19:54:43.565,1789340083.5658383,19
2026-09-13 19:54:43.573,1789340083.5735307,33
2026-09-13 19:54:43.581,1789340083.581223,63
2026-09-13 19:54:43.588,1789340083.588915,67
2026-09-13 19:54:43.596,1789340083.5966074,46
2026-09-13 19:54:43.604,1789340083.6042998,36
2026-09-13 19:54:43.611,1789340083.6119921,33
2026-09-13 19:54:43.619,1789340083.6196845,29
2026-09-13 19:54:43.627,1789340083.6273768,16
2026-09-13 19:54:43.635,1789340083.6350691,-2
2026-09-13 19:54:43.642,1789340083.6427615,0
2026-09-13 19:54:43.650,1789340083.6504536,29
2026-09-13 19:54:43.658,1789340083.658146,46
2026-09-13 19:54:43.665,1789340083.6658382,33
2026-09-13 19:54:43.673,1789340083.6735306,24
2026-09-13 19:54:43.681,1789340083.681223,26
2026-09-13 19:54:43.688,1789340083.6889153,21
2026-09-13 19:54:43.696,1789340083.6966076,55
2026-09-13 19:54:43.704,1789340083.7043,264
2026-09-13 19:54:43.711,1789340083.711992,700
2026-09-13 19:54:43.719,1789340083.7196844,1161
2026-09-13 19:54:43.727,1789340083.7273767,1159
2026-09-13 19:54:43.735,1789340083.735069,412
2026-09-13 19:54:43.742,1789340083.7427614,-310
2026-09-13 19:54:43.750,1789340083.7504537,-227
2026-09-13 19:54:43.758,1789340083.758146,19
2026-09-13 19:54:43.765,1789340083.7658384,-87
2026-09-13 19:54:43.773,1789340083.7735305,-104
2026-09-13 19:54:43.781,1789340083.7812228,7
2026-09-13 19:54:43.788,1789340083.7889152,-16
2026-09-13 19:54:43.796,1789340083.7966075,-53
2026-09-13 19:54:43.804,1789340083.8042998,-14
2026-09-13 19:54:43.811,1789340083.8119922,0
2026-09-13 19:54:43.819,1789340083.8196845,-7
2026-09-13 19:54:43.827,1789340083.8273768,7
2026-09-13 19:54:43.835,1789340083.835069,26
2026-09-13 19:54:43.842,1789340083.8427613,31
2026-09-13 19:54:43.850,1789340083.8504536,31
2026-09-13 19:54:43.858,1789340083.858146,36
2026-09-13 19:54:43.865,1789340083.8658383,41
2026-09-13 19:54:43.873,1789340083.8735306,63
2026-09-13 19:54:43.881,1789340083.881223,97
2026-09-13 19:54:43.888,1789340083.8889153,99
2026-09-13 19:54:43.896,1789340083.8966074,92
2026-09-13 19:54:43.904,1789340083.9042997,123
2026-09-13 19:54:43.911,1789340083.911992,155
2026-09-13 19:54:43.919,1789340083.9196844,169
2026-09-13 19:54:43.927,1789340083.9273767,196
2026-09-13 19:54:43.935,1789340083.935069,235
2026-09-13 19:54:43.942,1789340083.9427614,266
2026-09-13 19:54:43.950,1789340083.9504538,286
2026-09-13 19:54:43.958,1789340083.958146,286
2026-09-13 19:54:43.965,1789340083.9658382,278
2026-09-13 19:54:43.973,1789340083.9735305,266
2026-09-13 19:54:43.981,1789340083.9812229,227
2026-09-13 19:54:43.988,1789340083.9883842,157
2026-09-13 19:54:43.996,1789340083.9960766,82
2026-09-13 19:54:44.003,1789340084.003769,29
2026-09-13 19:54:44.011,1789340084.0114613,-12
2026-09-13 19:54:44.019,1789340084.0191536,-43
2026-09-13 19:54:44.026,1789340084.0268457,-63
2026-09-13 19:54:44.034,1789340084.034538,-70
2026-09-13 19:54:44.042,1789340084.0422304,-70
2026-09-13 19:54:44.049,1789340084.0499227,-70
2026-09-13 19:54:44.057,1789340084.057615,-70
2026-09-13 19:54:44.065,1789340084.0653074,-63
2026-09-13 19:54:44.073,1789340084.0729997,-53
2026-09-13 19:54:44.080,1789340084.080692,-33
2026-09-13 19:54:44.088,1789340084.0883842,-24
2026-09-13 19:54:44.096,1789340084.0960765,-29
2026-09-13 19:54:44.103,1789340084.1037688,-31
2026-09-13 19:54:44.111,1789340084.1114612,-19
2026-09-13 19:54:44.119,1789340084.1191535,-4
2026-09-13 19:54:44.126,1789340084.1268458,-2
2026-09-13 19:54:44.134,1789340084.1345382,-9
2026-09-13 19:54:44.142,1789340084.1422305,-12
2026-09-13 19:54:44.149,1789340084.1499226,-2
2026-09-13 19:54:44.157,1789340084.157615,7
2026-09-13 19:54:44.165,1789340084.1653073,4
2026-09-13 19:54:44.173,1789340084.1729996,4
2026-09-13 19:54:44.180,1789340084.180692,9
2026-09-13 19:54:44.188,1789340084.1883843,4
2026-09-13 19:54:44.196,1789340084.1960766,7
2026-09-13 19:54:44.203,1789340084.203769,16
2026-09-13 19:54:44.211,1789340084.211461,21
2026-09-13 19:54:44.219,1789340084.2191534,14
2026-09-13 19:54:44.226,1789340084.2268457,7
2026-09-13 19:54:44.234,1789340084.234538,14
2026-09-13 19:54:44.242,1789340084.2422304,26
2026-09-13 19:54:44.249,1789340084.2499228,26
2026-09-13 19:54:44.257,1789340084.257615,16
2026-09-13 19:54:44.265,1789340084.2653074,12
2026-09-13 19:54:44.273,1789340084.2729995,19
2026-09-13 19:54:44.280,1789340084.2806919,19
2026-09-13 19:54:44.288,1789340084.2883842,7
2026-09-13 19:54:44.296,1789340084.2960765,7
2026-09-13 19:54:44.303,1789340084.3037689,14
2026-09-13 19:54:44.311,1789340084.3114612,14
2026-09-13 19:54:44.319,1789340084.3191535,14
2026-09-13 19:54:44.326,1789340084.326846,31
2026-09-13 19:54:44.334,1789340084.334538,65
2026-09-13 19:54:44.342,1789340084.3422303,87
2026-09-13 19:54:44.349,1789340084.3499227,82
2026-09-13 19:54:44.357,1789340084.357615,67
2026-09-13 19:54:44.365,1789340084.3653073,63
2026-09-13 19:54:44.373,1789340084.3729997,67
2026-09-13 19:54:44.380,1789340084.380692,67
2026-09-13 19:54:44.388,1789340084.3883843,48
2026-09-13 19:54:44.396,1789340084.3960764,21
2026-09-13 19:54:44.403,1789340084.4037688,33
2026-09-13 19:54:44.411,1789340084.411461,48
2026-09-13 19:54:44.419,1789340084.4191535,33
2026-09-13 19:54:44.426,1789340084.4268458,31
2026-09-13 19:54:44.434,1789340084.4345381,43
2026-09-13 19:54:44.442,1789340084.4422305,38
2026-09-13 19:54:44.449,1789340084.4499228,31
2026-09-13 19:54:44.457,1789340084.457615,31
2026-09-13 19:54:44.465,1789340084.4653072,89
2026-09-13 19:54:44.473,1789340084.4729996,366
2026-09-13 19:54:44.480,1789340084.480692,843
2026-09-13 19:54:44.488,1789340084.4883842,1217
2026-09-13 19:54:44.496,1789340084.4960766,1040
2026-09-13 19:54:44.503,1789340084.503769,259
2026-09-13 19:54:44.511,1789340084.5114613,-269
2026-09-13 19:54:44.519,1789340084.5191536,-111
2026-09-13 19:54:44.526,1789340084.5268457,33
2026-09-13 19:54:44.534,1789340084.534538,-65
2026-09-13 19:54:44.542,1789340084.5422304,-60
2026-09-13 19:54:44.549,1789340084.5493915,-7
2026-09-13 19:54:44.557,1789340084.5570838,-26
2026-09-13 19:54:44.564,1789340084.5647762,-19
2026-09-13 19:54:44.572,1789340084.5724685,12
2026-09-13 19:54:44.580,1789340084.5801609,7
2026-09-13 19:54:44.587,1789340084.587853,7
2026-09-13 19:54:44.595,1789340084.5955453,21
2026-09-13 19:54:44.603,1789340084.6032376,19
2026-09-13 19:54:44.610,1789340084.61093,26
2026-09-13 19:54:44.618,1789340084.6186223,53
2026-09-13 19:54:44.626,1789340084.6263146,63
2026-09-13 19:54:44.634,1789340084.634007,60
2026-09-13 19:54:44.641,1789340084.6416993,67
2026-09-13 19:54:44.649,1789340084.6493914,87
2026-09-13 19:54:44.657,1789340084.6570837,94
2026-09-13 19:54:44.664,1789340084.664776,94
2026-09-13 19:54:44.672,1789340084.6724684,116
2026-09-13 19:54:44.680,1789340084.6801608,152
2026-09-13 19:54:44.687,1789340084.687853,179
2026-09-13 19:54:44.695,1789340084.6955454,191
2026-09-13 19:54:44.703,1789340084.7032378,208
2026-09-13 19:54:44.710,1789340084.7109299,235
2026-09-13 19:54:44.718,1789340084.7186222,249
2026-09-13 19:54:44.726,1789340084.7263145,259
2026-09-13 19:54:44.734,1789340084.734007,269
2026-09-13 19:54:44.741,1789340084.7416992,257
2026-09-13 19:54:44.749,1789340084.7493916,201
2026-09-13 19:54:44.757,1789340084.757084,128
2026-09-13 19:54:44.764,1789340084.7647762,84
2026-09-13 19:54:44.772,1789340084.7724683,60
2026-09-13 19:54:44.780,1789340084.7801607,26
2026-09-13 19:54:44.787,1789340084.787853,-7
2026-09-13 19:54:44.795,1789340084.7955453,-24
2026-09-13 19:54:44.803,1789340084.8032377,-24
2026-09-13 19:54:44.810,1789340084.81093,-29
2026-09-13 19:54:44.818,1789340084.8186224,-38
2026-09-13 19:54:44.826,1789340084.8263147,-26
2026-09-13 19:54:44.834,1789340084.8340068,-4
2026-09-13 19:54:44.841,1789340084.8416991,0
2026-09-13 19:54:44.849,1789340084.8493915,0
2026-09-13 19:54:44.857,1789340084.8570838,4
2026-09-13 19:54:44.864,1789340084.8647761,7
2026-09-13 19:54:44.872,1789340084.8724685,4
2026-09-13 19:54:44.880,1789340084.8801608,7
2026-09-13 19:54:44.887,1789340084.8878531,7
2026-09-13 19:54:44.895,1789340084.8955452,12
2026-09-13 19:54:44.903,1789340084.9032376,38
2026-09-13 19:54:44.910,1789340084.91093,48
2026-09-13 19:54:44.918,1789340084.9186223,29
2026-09-13 19:54:44.926,1789340084.9263146,33
2026-09-13 19:54:44.934,1789340084.934007,58
2026-09-13 19:54:44.941,1789340084.9416993,50
2026-09-13 19:54:44.949,1789340084.9493916,36
2026-09-13 19:54:44.957,1789340084.9570837,50
2026-09-13 19:54:44.964,1789340084.964776,55
2026-09-13 19:54:44.972,1789340084.9724684,41
2026-09-13 19:54:44.980,1789340084.9801607,41
2026-09-13 19:54:44.987,1789340084.987853,60
2026-09-13 19:54:44.995,1789340084.9955454,65
2026-09-13 19:54:45.003,1789340085.0032377,48
2026-09-13 19:54:45.010,1789340085.01093,46
2026-09-13 19:54:45.018,1789340085.0186222,63
2026-09-13 19:54:45.026,1789340085.0263145,70
2026-09-13 19:54:45.034,1789340085.0340068,50
2026-09-13 19:54:45.041,1789340085.0416992,48
2026-09-13 19:54:45.049,1789340085.0493915,77
2026-09-13 19:54:45.057,1789340085.0570838,89
2026-09-13 19:54:45.064,1789340085.0647762,65
2026-09-13 19:54:45.072,1789340085.0724685,53
2026-09-13 19:54:45.080,1789340085.0801609,67
2026-09-13 19:54:45.087,1789340085.087853,72
2026-09-13 19:54:45.095,1789340085.0955453,67
2026-09-13 19:54:45.103,1789340085.1032376,72
2026-09-13 19:54:45.110,1789340085.1103988,82
2026-09-13 19:54:45.118,1789340085.118091,104
2026-09-13 19:54:45.125,1789340085.1257834,130
2026-09-13 19:54:45.133,1789340085.1334758,128
2026-09-13 19:54:45.141,1789340085.141168,109
2026-09-13 19:54:45.148,1789340085.1488602,101
2026-09-13 19:54:45.156,1789340085.1565526,111
2026-09-13 19:54:45.164,1789340085.164245,109
2026-09-13 19:54:45.171,1789340085.1719372,89
2026-09-13 19:54:45.179,1789340085.1796296,77
2026-09-13 19:54:45.187,1789340085.187322,77
2026-09-13 19:54:45.195,1789340085.1950142,72
2026-09-13 19:54:45.202,1789340085.2027066,75
2026-09-13 19:54:45.210,1789340085.2103987,80
2026-09-13 19:54:45.218,1789340085.218091,60
2026-09-13 19:54:45.225,1789340085.2257833,46
2026-09-13 19:54:45.233,1789340085.2334757,58
2026-09-13 19:54:45.241,1789340085.241168,63
2026-09-13 19:54:45.248,1789340085.2488604,80
2026-09-13 19:54:45.256,1789340085.2565527,254
2026-09-13 19:54:45.264,1789340085.264245,649
2026-09-13 19:54:45.271,1789340085.2719371,1096
2026-09-13 19:54:45.279,1789340085.2796295,1193
2026-09-13 19:54:45.287,1789340085.2873218,584
2026-09-13 19:54:45.295,1789340085.2950141,-177
2026-09-13 19:54:45.302,1789340085.3027065,-210
2026-09-13 19:54:45.310,1789340085.3103988,60
2026-09-13 19:54:45.318,1789340085.3180912,-24
2026-09-13 19:54:45.325,1789340085.3257835,-121
2026-09-13 19:54:45.333,1789340085.3334756,-16
2026-09-13 19:54:45.341,1789340085.341168,14
2026-09-13 19:54:45.348,1789340085.3488603,-29
2026-09-13 19:54:45.356,1789340085.3565526,-9
2026-09-13 19:54:45.364,1789340085.364245,12
2026-09-13 19:54:45.371,1789340085.3719373,-4
2026-09-13 19:54:45.379,1789340085.3796296,0
2026-09-13 19:54:45.387,1789340085.387322,14
2026-09-13 19:54:45.395,1789340085.395014,19
2026-09-13 19:54:45.402,1789340085.4027064,26
2026-09-13 19:54:45.410,1789340085.4103987,38
2026-09-13 19:54:45.418,1789340085.418091,55
2026-09-13 19:54:45.425,1789340085.4257834,72
2026-09-13 19:54:45.433,1789340085.4334757,75
2026-09-13 19:54:45.441,1789340085.441168,63
2026-09-13 19:54:45.448,1789340085.4488604,63
2026-09-13 19:54:45.456,1789340085.4565525,72
2026-09-13 19:54:45.464,1789340085.4642448,111
2026-09-13 19:54:45.471,1789340085.4719372,164
2026-09-13 19:54:45.479,1789340085.4796295,189
2026-09-13 19:54:45.487,1789340085.4873219,203
2026-09-13 19:54:45.495,1789340085.4950142,225
2026-09-13 19:54:45.502,1789340085.5027065,237
2026-09-13 19:54:45.510,1789340085.5103989,235
2026-09-13 19:54:45.518,1789340085.518091,237
2026-09-13 19:54:45.525,1789340085.5257833,237
2026-09-13 19:54:45.533,1789340085.5334756,198
2026-09-13 19:54:45.541,1789340085.541168,123
2026-09-13 19:54:45.548,1789340085.5488603,60
2026-09-13 19:54:45.556,1789340085.5565526,0
2026-09-13 19:54:45.564,1789340085.564245,-63
2026-09-13 19:54:45.571,1789340085.5719373,-99
2026-09-13 19:54:45.579,1789340085.5796294,-118
2026-09-13 19:54:45.587,1789340085.5873218,-128
2026-09-13 19:54:45.595,1789340085.595014,-113
2026-09-13 19:54:45.602,1789340085.6027064,-101
2026-09-13 19:54:45.610,1789340085.6103988,-116
2026-09-13 19:54:45.618,1789340085.618091,-126
2026-09-13 19:54:45.625,1789340085.6257834,-111
2026-09-13 19:54:45.633,1789340085.6334758,-104
2026-09-13 19:54:45.641,1789340085.641168,-109
2026-09-13 19:54:45.648,1789340085.6488602,-109
2026-09-13 19:54:45.656,1789340085.6565526,-89
2026-09-13 19:54:45.664,1789340085.664245,-70
2026-09-13 19:54:45.671,1789340085.671406,-84
2026-09-13 19:54:45.679,1789340085.6790984,-104
2026-09-13 19:54:45.686,1789340085.6867907,-87
2026-09-13 19:54:45.694,1789340085.694483,-70
2026-09-13 19:54:45.702,1789340085.7021754,-80
2026-09-13 19:54:45.709,1789340085.7098675,-89
2026-09-13 19:54:45.717,1789340085.7175598,-77
2026-09-13 19:54:45.725,1789340085.7252522,-67
2026-09-13 19:54:45.732,1789340085.7329445,-87
2026-09-13 19:54:45.740,1789340085.7406368,-92
2026-09-13 19:54:45.748,1789340085.7483292,-67
2026-09-13 19:54:45.756,1789340085.7560215,-63
2026-09-13 19:54:45.763,1789340085.7637138,-70
2026-09-13 19:54:45.771,1789340085.771406,-65
2026-09-13 19:54:45.779,1789340085.7790983,-65
2026-09-13 19:54:45.786,1789340085.7867906,-67
2026-09-13 19:54:45.794,1789340085.794483,-70
2026-09-13 19:54:45.802,1789340085.8021753,-65
2026-09-13 19:54:45.809,1789340085.8098676,-58
2026-09-13 19:54:45.817,1789340085.81756,-70
2026-09-13 19:54:45.825,1789340085.8252523,-80
2026-09-13 19:54:45.832,1789340085.8329444,-72
2026-09-13 19:54:45.840,1789340085.8406367,-82
2026-09-13 19:54:45.848,1789340085.848329,-92
2026-09-13 19:54:45.856,1789340085.8560214,-60
2026-09-13 19:54:45.863,1789340085.8637137,-26
2026-09-13 19:54:45.871,1789340085.871406,-24
2026-09-13 19:54:45.879,1789340085.8790984,-19
2026-09-13 19:54:45.886,1789340085.8867908,-24
2026-09-13 19:54:45.894,1789340085.8944829,-48
2026-09-13 19:54:45.902,1789340085.9021752,-38
2026-09-13 19:54:45.909,1789340085.9098675,-24
2026-09-13 19:54:45.917,1789340085.9175599,-50
2026-09-13 19:54:45.925,1789340085.9252522,-67
2026-09-13 19:54:45.932,1789340085.9329445,-63
2026-09-13 19:54:45.940,1789340085.9406369,-80
2026-09-13 19:54:45.948,1789340085.9483292,-99
2026-09-13 19:54:45.956,1789340085.9560213,-89
2026-09-13 19:54:45.963,1789340085.9637136,-70
2026-09-13 19:54:45.971,1789340085.971406,-82
2026-09-13 19:54:45.979,1789340085.9790983,-82
2026-09-13 19:54:45.986,1789340085.9867907,-60
2026-09-13 19:54:45.994,1789340085.994483,-75
2026-09-13 19:54:46.002,1789340086.0021753,-60
2026-09-13 19:54:46.009,1789340086.0098677,140
2026-09-13 19:54:46.017,1789340086.0175598,538
2026-09-13 19:54:46.025,1789340086.025252,962
2026-09-13 19:54:46.032,1789340086.0329444,996
2026-09-13 19:54:46.040,1789340086.0406368,288
2026-09-13 19:54:46.048,1789340086.048329,-480
2026-09-13 19:54:46.056,1789340086.0560215,-402
2026-09-13 19:54:46.063,1789340086.0637138,-55
2026-09-13 19:54:46.071,1789340086.0714061,-130
2026-09-13 19:54:46.079,1789340086.0790982,-206
2026-09-13 19:54:46.086,1789340086.0867906,-106
2026-09-13 19:54:46.094,1789340086.094483,-104
2026-09-13 19:54:46.102,1789340086.1021752,-130
2026-09-13 19:54:46.109,1789340086.1098676,-89
2026-09-13 19:54:46.117,1789340086.11756,-70
2026-09-13 19:54:46.125,1789340086.1252522,-80
2026-09-13 19:54:46.132,1789340086.1329446,-67
2026-09-13 19:54:46.140,1789340086.1406367,-60
2026-09-13 19:54:46.148,1789340086.148329,-72
2026-09-13 19:54:46.156,1789340086.1560214,-63
2026-09-13 19:54:46.163,1789340086.1637137,-31
2026-09-13 19:54:46.171,1789340086.171406,-16
2026-09-13 19:54:46.179,1789340086.1790984,-7
2026-09-13 19:54:46.186,1789340086.1867907,4
2026-09-13 19:54:46.194,1789340086.194483,16
2026-09-13 19:54:46.202,1789340086.2021754,33
2026-09-13 19:54:46.209,1789340086.2098675,48
2026-09-13 19:54:46.217,1789340086.2175598,72
2026-09-13 19:54:46.225,1789340086.2252522,113
2026-09-13 19:54:46.232,1789340086.232388,133
2026-09-13 19:54:46.240,1789340086.2400804,147
2026-09-13 19:54:46.247,1789340086.2477727,184
2026-09-13 19:54:46.255,1789340086.255465,218
2026-09-13 19:54:46.263,1789340086.2631574,237
2026-09-13 19:54:46.270,1789340086.2708495,240
2026-09-13 19:54:46.278,1789340086.2785418,208
2026-09-13 19:54:46.286,1789340086.2862341,143
2026-09-13 19:54:46.293,1789340086.2939265,58
2026-09-13 19:54:46.301,1789340086.3016188,-26
2026-09-13 19:54:46.309,1789340086.3093112,-89
2026-09-13 19:54:46.317,1789340086.3170035,-133
2026-09-13 19:54:46.324,1789340086.3246958,-167
2026-09-13 19:54:46.332,1789340086.332388,-186
2026-09-13 19:54:46.340,1789340086.3400803,-181
2026-09-13 19:54:46.347,1789340086.3477726,-181
2026-09-13 19:54:46.355,1789340086.355465,-196
2026-09-13 19:54:46.363,1789340086.3631573,-189
2026-09-13 19:54:46.370,1789340086.3708496,-162
2026-09-13 19:54:46.378,1789340086.378542,-150
2026-09-13 19:54:46.386,1789340086.3862343,-147
2026-09-13 19:54:46.393,1789340086.3939264,-140
2026-09-13 19:54:46.401,1789340086.4016187,-135
2026-09-13 19:54:46.409,1789340086.409311,-133
2026-09-13 19:54:46.417,1789340086.4170034,-128
2026-09-13 19:54:46.424,1789340086.4246957,-121
2026-09-13 19:54:46.432,1789340086.432388,-109
2026-09-13 19:54:46.440,1789340086.4400804,-101
2026-09-13 19:54:46.447,1789340086.4477727,-92
2026-09-13 19:54:46.455,1789340086.4554648,-84
2026-09-13 19:54:46.463,1789340086.4631572,-87
2026-09-13 19:54:46.470,1789340086.4708495,-84
2026-09-13 19:54:46.478,1789340086.4785419,-77
2026-09-13 19:54:46.486,1789340086.4862342,-67
2026-09-13 19:54:46.493,1789340086.4939265,-63
2026-09-13 19:54:46.501,1789340086.5016189,-65
2026-09-13 19:54:46.509,1789340086.5093112,-75
2026-09-13 19:54:46.517,1789340086.5170033,-70
2026-09-13 19:54:46.524,1789340086.5246956,-55
2026-09-13 19:54:46.532,1789340086.532388,-53
2026-09-13 19:54:46.540,1789340086.5400803,-50
2026-09-13 19:54:46.547,1789340086.5477726,-38
2026-09-13 19:54:46.555,1789340086.555465,-38
2026-09-13 19:54:46.563,1789340086.5631573,-53
2026-09-13 19:54:46.570,1789340086.5708497,-58
2026-09-13 19:54:46.578,1789340086.5785418,-55
2026-09-13 19:54:46.586,1789340086.586234,-43
2026-09-13 19:54:46.593,1789340086.5939264,-24
2026-09-13 19:54:46.601,1789340086.6016188,-7
2026-09-13 19:54:46.609,1789340086.609311,12
2026-09-13 19:54:46.617,1789340086.6170034,19
2026-09-13 19:54:46.624,1789340086.6246958,9
2026-09-13 19:54:46.632,1789340086.632388,14
2026-09-13 19:54:46.640,1789340086.6400802,24
2026-09-13 19:54:46.647,1789340086.6477726,9
2026-09-13 19:54:46.655,1789340086.655465,-9
2026-09-13 19:54:46.663,1789340086.6631572,-19
2026-09-13 19:54:46.670,1789340086.6708496,-21
2026-09-13 19:54:46.678,1789340086.678542,-12
2026-09-13 19:54:46.686,1789340086.6862342,4
2026-09-13 19:54:46.693,1789340086.6939266,2
2026-09-13 19:54:46.701,1789340086.7016187,-7
2026-09-13 19:54:46.709,1789340086.709311,-4
2026-09-13 19:54:46.717,1789340086.7170033,2
2026-09-13 19:54:46.724,1789340086.7246957,-4
2026-09-13 19:54:46.732,1789340086.732388,82
2026-09-13 19:54:46.740,1789340086.7400804,402
2026-09-13 19:54:46.747,1789340086.7477727,899
2026-09-13 19:54:46.755,1789340086.755465,1251
2026-09-13 19:54:46.763,1789340086.7631574,940
2026-09-13 19:54:46.770,1789340086.7708495,63
2026-09-13 19:54:46.778,1789340086.7785418,-354
2026-09-13 19:54:46.786,1789340086.7862341,-80
2026-09-13 19:54:46.793,1789340086.7933903,26
2026-09-13 19:54:46.801,1789340086.8010826,-113
2026-09-13 19:54:46.808,1789340086.808775,-77
2026-09-13 19:54:46.816,1789340086.8164673,-9
2026-09-13 19:54:46.824,1789340086.8241596,-58
2026-09-13 19:54:46.831,1789340086.8318517,-58
2026-09-13 19:54:46.839,1789340086.839544,-2
2026-09-13 19:54:46.847,1789340086.8472364,21
2026-09-13 19:54:46.854,1789340086.8549287,19
2026-09-13 19:54:46.862,1789340086.862621,26
2026-09-13 19:54:46.870,1789340086.8703134,33
2026-09-13 19:54:46.878,1789340086.8780057,41
2026-09-13 19:54:46.885,1789340086.885698,50
2026-09-13 19:54:46.893,1789340086.8933902,60
2026-09-13 19:54:46.901,1789340086.9010825,72
2026-09-13 19:54:46.908,1789340086.9087749,94
2026-09-13 19:54:46.916,1789340086.9164672,101
2026-09-13 19:54:46.924,1789340086.9241595,97
2026-09-13 19:54:46.931,1789340086.9318519,111
2026-09-13 19:54:46.939,1789340086.9395442,145
2026-09-13 19:54:46.947,1789340086.9472365,181
2026-09-13 19:54:46.954,1789340086.9549286,196
2026-09-13 19:54:46.962,1789340086.962621,215
2026-09-13 19:54:46.970,1789340086.9703133,249
2026-09-13 19:54:46.978,1789340086.9780056,274
2026-09-13 19:54:46.985,1789340086.985698,278
2026-09-13 19:54:46.993,1789340086.9933903,283
2026-09-13 19:54:47.001,1789340087.0010827,288
2026-09-13 19:54:47.008,1789340087.008775,261
2026-09-13 19:54:47.016,1789340087.016467,201
2026-09-13 19:54:47.024,1789340087.0241594,138
2026-09-13 19:54:47.031,1789340087.0318518,94
2026-09-13 19:54:47.039,1789340087.039544,50
2026-09-13 19:54:47.047,1789340087.0472364,7
2026-09-13 19:54:47.054,1789340087.0549288,-14
2026-09-13 19:54:47.062,1789340087.062621,-19
2026-09-13 19:54:47.070,1789340087.0703135,-16
2026-09-13 19:54:47.078,1789340087.0780056,-14
2026-09-13 19:54:47.085,1789340087.085698,-16
2026-09-13 19:54:47.093,1789340087.0933902,-19
2026-09-13 19:54:47.101,1789340087.1010826,-7
2026-09-13 19:54:47.108,1789340087.108775,7
2026-09-13 19:54:47.116,1789340087.1164672,4
2026-09-13 19:54:47.124,1789340087.1241596,-4
2026-09-13 19:54:47.131,1789340087.131852,2
2026-09-13 19:54:47.139,1789340087.139544,21
2026-09-13 19:54:47.147,1789340087.1472363,38
2026-09-13 19:54:47.154,1789340087.1549287,36
2026-09-13 19:54:47.162,1789340087.162621,36
2026-09-13 19:54:47.170,1789340087.1703134,50
2026-09-13 19:54:47.178,1789340087.1780057,48
2026-09-13 19:54:47.185,1789340087.185698,36
2026-09-13 19:54:47.193,1789340087.1933904,43
2026-09-13 19:54:47.201,1789340087.2010825,60
2026-09-13 19:54:47.208,1789340087.2087748,60
2026-09-13 19:54:47.216,1789340087.2164671,48
2026-09-13 19:54:47.224,1789340087.2241595,46
2026-09-13 19:54:47.231,1789340087.2318518,48
2026-09-13 19:54:47.239,1789340087.2395442,55
2026-09-13 19:54:47.247,1789340087.2472365,67
2026-09-13 19:54:47.254,1789340087.2549288,77
2026-09-13 19:54:47.262,1789340087.262621,75
2026-09-13 19:54:47.270,1789340087.2703133,70
2026-09-13 19:54:47.278,1789340087.2780056,75
2026-09-13 19:54:47.285,1789340087.285698,75
2026-09-13 19:54:47.293,1789340087.2933903,77
2026-09-13 19:54:47.301,1789340087.3010826,87
2026-09-13 19:54:47.308,1789340087.308775,84
2026-09-13 19:54:47.316,1789340087.3164673,75
2026-09-13 19:54:47.324,1789340087.3241596,63
2026-09-13 19:54:47.331,1789340087.3318517,65
2026-09-13 19:54:47.339,1789340087.339544,82
2026-09-13 19:54:47.347,1789340087.3472364,94
2026-09-13 19:54:47.354,1789340087.3543975,116
2026-09-13 19:54:47.362,1789340087.3620899,140
2026-09-13 19:54:47.369,1789340087.3697822,133
2026-09-13 19:54:47.377,1789340087.3774745,111
2026-09-13 19:54:47.385,1789340087.385167,121
2026-09-13 19:54:47.392,1789340087.392859,140
2026-09-13 19:54:47.400,1789340087.4005513,130
2026-09-13 19:54:47.408,1789340087.4082437,99
2026-09-13 19:54:47.415,1789340087.415936,89
2026-09-13 19:54:47.423,1789340087.4236283,94
2026-09-13 19:54:47.431,1789340087.4313207,92
2026-09-13 19:54:47.439,1789340087.439013,84
2026-09-13 19:54:47.446,1789340087.4467053,87
2026-09-13 19:54:47.454,1789340087.4543974,104
2026-09-13 19:54:47.462,1789340087.4620898,113
2026-09-13 19:54:47.469,1789340087.469782,101
2026-09-13 19:54:47.477,1789340087.4774745,82
2026-09-13 19:54:47.485,1789340087.4851668,128
2026-09-13 19:54:47.492,1789340087.4928591,375
2026-09-13 19:54:47.500,1789340087.5005515,822
2026-09-13 19:54:47.508,1789340087.5082438,1222
2026-09-13 19:54:47.515,1789340087.515936,1115
2026-09-13 19:54:47.523,1789340087.5236282,356
2026-09-13 19:54:47.531,1789340087.5313206,-223
2026-09-13 19:54:47.539,1789340087.539013,-75
2026-09-13 19:54:47.546,1789340087.5467052,92
2026-09-13 19:54:47.554,1789340087.5543976,-31
2026-09-13 19:54:47.562,1789340087.56209,-33
2026-09-13 19:54:47.569,1789340087.5697823,48
2026-09-13 19:54:47.577,1789340087.5774744,21
2026-09-13 19:54:47.585,1789340087.5851667,7
2026-09-13 19:54:47.592,1789340087.592859,41
2026-09-13 19:54:47.600,1789340087.6005514,43
2026-09-13 19:54:47.608,1789340087.6082437,33
2026-09-13 19:54:47.615,1789340087.615936,50
2026-09-13 19:54:47.623,1789340087.6236284,63
2026-09-13 19:54:47.631,1789340087.6313207,58
2026-09-13 19:54:47.639,1789340087.6390128,48
2026-09-13 19:54:47.646,1789340087.6467052,48
2026-09-13 19:54:47.654,1789340087.6543975,67
2026-09-13 19:54:47.662,1789340087.6620898,97
2026-09-13 19:54:47.669,1789340087.6697822,111
2026-09-13 19:54:47.677,1789340087.6774745,113
2026-09-13 19:54:47.685,1789340087.6851668,130
2026-09-13 19:54:47.692,1789340087.6928592,155
2026-09-13 19:54:47.700,1789340087.7005513,164
2026-09-13 19:54:47.708,1789340087.7082436,167
2026-09-13 19:54:47.715,1789340087.715936,184
2026-09-13 19:54:47.723,1789340087.7236283,213
2026-09-13 19:54:47.731,1789340087.7313206,230
2026-09-13 19:54:47.739,1789340087.739013,244
2026-09-13 19:54:47.746,1789340087.7467053,261
2026-09-13 19:54:47.754,1789340087.7543976,259
2026-09-13 19:54:47.762,1789340087.7620897,235
2026-09-13 19:54:47.769,1789340087.769782,196
2026-09-13 19:54:47.777,1789340087.7774744,143
2026-09-13 19:54:47.785,1789340087.7851667,70
2026-09-13 19:54:47.792,1789340087.792859,19
2026-09-13 19:54:47.800,1789340087.8005514,-2
2026-09-13 19:54:47.808,1789340087.8082438,-16
2026-09-13 19:54:47.815,1789340087.815936,-31
2026-09-13 19:54:47.823,1789340087.8236282,-31
2026-09-13 19:54:47.831,1789340087.8313205,-29
2026-09-13 19:54:47.839,1789340087.8390129,-38
2026-09-13 19:54:47.846,1789340087.8467052,-46
2026-09-13 19:54:47.854,1789340087.8543975,-36
2026-09-13 19:54:47.862,1789340087.8620899,-26
2026-09-13 19:54:47.869,1789340087.8697822,-21
2026-09-13 19:54:47.877,1789340087.8774745,-14
2026-09-13 19:54:47.885,1789340087.885167,-7
2026-09-13 19:54:47.892,1789340087.892859,-7
2026-09-13 19:54:47.900,1789340087.9005513,-9
2026-09-13 19:54:47.908,1789340087.9082437,0
2026-09-13 19:54:47.915,1789340087.9153743,14
2026-09-13 19:54:47.923,1789340087.9230666,21
2026-09-13 19:54:47.930,1789340087.930759,19
2026-09-13 19:54:47.938,1789340087.9384513,14
2026-09-13 19:54:47.946,1789340087.9461436,16
2026-09-13 19:54:47.953,1789340087.9538357,14
2026-09-13 19:54:47.961,1789340087.961528,12
2026-09-13 19:54:47.969,1789340087.9692204,16
2026-09-13 19:54:47.976,1789340087.9769127,21
2026-09-13 19:54:47.984,1789340087.984605,21
2026-09-13 19:54:47.992,1789340087.9922974,16
2026-09-13 19:54:47.999,1789340087.9999897,7
2026-09-13 19:54:48.007,1789340088.007682,7
2026-09-13 19:54:48.015,1789340088.0153742,14
2026-09-13 19:54:48.023,1789340088.0230665,24
2026-09-13 19:54:48.030,1789340088.0307589,41
2026-09-13 19:54:48.038,1789340088.0384512,36
2026-09-13 19:54:48.046,1789340088.0461435,21
2026-09-13 19:54:48.053,1789340088.0538359,26
2026-09-13 19:54:48.061,1789340088.0615282,38
2026-09-13 19:54:48.069,1789340088.0692205,38
2026-09-13 19:54:48.076,1789340088.0769126,31
2026-09-13 19:54:48.084,1789340088.084605,21
2026-09-13 19:54:48.092,1789340088.0922973,19
2026-09-13 19:54:48.099,1789340088.0999897,26
2026-09-13 19:54:48.107,1789340088.107682,29
2026-09-13 19:54:48.115,1789340088.1153743,33
2026-09-13 19:54:48.123,1789340088.1230667,50
2026-09-13 19:54:48.130,1789340088.130759,70
2026-09-13 19:54:48.138,1789340088.138451,80
2026-09-13 19:54:48.146,1789340088.1461434,82
2026-09-13 19:54:48.153,1789340088.1538358,84
2026-09-13 19:54:48.161,1789340088.161528,80
2026-09-13 19:54:48.169,1789340088.1692204,67
2026-09-13 19:54:48.176,1789340088.1769128,55
2026-09-13 19:54:48.184,1789340088.1846051,36
2026-09-13 19:54:48.192,1789340088.1922975,16
2026-09-13 19:54:48.199,1789340088.1999896,16
2026-09-13 19:54:48.207,1789340088.207682,26
2026-09-13 19:54:48.215,1789340088.2153742,26
2026-09-13 19:54:48.223,1789340088.2230666,31
2026-09-13 19:54:48.230,1789340088.230759,33
2026-09-13 19:54:48.238,1789340088.2384512,12
2026-09-13 19:54:48.246,1789340088.2461436,0
2026-09-13 19:54:48.253,1789340088.253836,19
2026-09-13 19:54:48.261,1789340088.261528,82
2026-09-13 19:54:48.269,1789340088.2692204,300
2026-09-13 19:54:48.276,1789340088.2769127,703
2026-09-13 19:54:48.284,1789340088.284605,1093
2026-09-13 19:54:48.292,1789340088.2922974,989
2026-09-13 19:54:48.299,1789340088.2999897,225
2026-09-13 19:54:48.307,1789340088.307682,-320
2026-09-13 19:54:48.315,1789340088.3153744,-135
2026-09-13 19:54:48.323,1789340088.3230665,24
2026-09-13 19:54:48.330,1789340088.3307588,-104
2026-09-13 19:54:48.338,1789340088.3384511,-104
2026-09-13 19:54:48.346,1789340088.3461435,-29
2026-09-13 19:54:48.353,1789340088.3538358,-53
2026-09-13 19:54:48.361,1789340088.3615282,-63
2026-09-13 19:54:48.369,1789340088.3692205,-26
2026-09-13 19:54:48.376,1789340088.3769128,-14
2026-09-13 19:54:48.384,1789340088.384605,-16
2026-09-13 19:54:48.392,1789340088.3922973,-16
2026-09-13 19:54:48.399,1789340088.3999896,-7
2026-09-13 19:54:48.407,1789340088.407682,19
2026-09-13 19:54:48.415,1789340088.4153743,29
2026-09-13 19:54:48.423,1789340088.4230666,21
2026-09-13 19:54:48.430,1789340088.430759,26
2026-09-13 19:54:48.438,1789340088.4384513,38
2026-09-13 19:54:48.446,1789340088.4461436,43
2026-09-13 19:54:48.453,1789340088.4538357,53
2026-09-13 19:54:48.461,1789340088.461528,72
2026-09-13 19:54:48.469,1789340088.4692204,106
2026-09-13 19:54:48.476,1789340088.4763815,140
2026-09-13 19:54:48.484,1789340088.4840739,167
2026-09-13 19:54:48.491,1789340088.4917662,189
2026-09-13 19:54:48.499,1789340088.4994586,203
2026-09-13 19:54:48.507,1789340088.507151,210
2026-09-13 19:54:48.514,1789340088.514843,230
2026-09-13 19:54:48.522,1789340088.5225353,252
2026-09-13 19:54:48.530,1789340088.5302277,244
2026-09-13 19:54:48.537,1789340088.53792,206
2026-09-13 19:54:48.545,1789340088.5456123,157
2026-09-13 19:54:48.553,1789340088.5533047,99
2026-09-13 19:54:48.560,1789340088.560997,38
2026-09-13 19:54:48.568,1789340088.5686893,-9
2026-09-13 19:54:48.576,1789340088.5763814,-46
2026-09-13 19:54:48.584,1789340088.5840738,-77
2026-09-13 19:54:48.591,1789340088.591766,-97
2026-09-13 19:54:48.599,1789340088.5994585,-101
2026-09-13 19:54:48.607,1789340088.6071508,-101
2026-09-13 19:54:48.614,1789340088.6148431,-99
2026-09-13 19:54:48.622,1789340088.6225355,-104
2026-09-13 19:54:48.630,1789340088.6302278,-101
2026-09-13 19:54:48.637,1789340088.63792,-77
2026-09-13 19:54:48.645,1789340088.6456122,-60
2026-09-13 19:54:48.653,1789340088.6533046,-65
2026-09-13 19:54:48.660,1789340088.660997,-72
2026-09-13 19:54:48.668,1789340088.6686893,-58
2026-09-13 19:54:48.676,1789340088.6763816,-50
2026-09-13 19:54:48.684,1789340088.684074,-55
2026-09-13 19:54:48.691,1789340088.6917663,-50
2026-09-13 19:54:48.699,1789340088.6994584,-33
2026-09-13 19:54:48.707,1789340088.7071507,-29
2026-09-13 19:54:48.714,1789340088.714843,-41
2026-09-13 19:54:48.722,1789340088.7225354,-46
2026-09-13 19:54:48.730,1789340088.7302277,-46
2026-09-13 19:54:48.737,1789340088.73792,-50
2026-09-13 19:54:48.745,1789340088.7456124,-43
2026-09-13 19:54:48.753,1789340088.7533047,-26
2026-09-13 19:54:48.760,1789340088.7609968,-21
2026-09-13 19:54:48.768,1789340088.7686892,-21
2026-09-13 19:54:48.776,1789340088.7763815,-21
2026-09-13 19:54:48.784,1789340088.7840738,-31
2026-09-13 19:54:48.791,1789340088.7917662,-33
2026-09-13 19:54:48.799,1789340088.7994585,-19
2026-09-13 19:54:48.807,1789340088.8071508,-16
2026-09-13 19:54:48.814,1789340088.8148432,-26
2026-09-13 19:54:48.822,1789340088.8225353,-29
2026-09-13 19:54:48.830,1789340088.8302276,-29
2026-09-13 19:54:48.837,1789340088.83792,-26
2026-09-13 19:54:48.845,1789340088.8456123,-16
2026-09-13 19:54:48.853,1789340088.8533046,-4
2026-09-13 19:54:48.860,1789340088.860997,7
2026-09-13 19:54:48.868,1789340088.8686893,33
2026-09-13 19:54:48.876,1789340088.8763816,58
2026-09-13 19:54:48.884,1789340088.8840737,60
2026-09-13 19:54:48.891,1789340088.891766,41
2026-09-13 19:54:48.899,1789340088.8994584,16
2026-09-13 19:54:48.907,1789340088.9071507,4
2026-09-13 19:54:48.914,1789340088.914843,-9
2026-09-13 19:54:48.922,1789340088.9225354,-19
2026-09-13 19:54:48.930,1789340088.9302278,-7
2026-09-13 19:54:48.937,1789340088.93792,0
2026-09-13 19:54:48.945,1789340088.9456122,-9
2026-09-13 19:54:48.953,1789340088.9533045,-9
2026-09-13 19:54:48.960,1789340088.9609969,-9
2026-09-13 19:54:48.968,1789340088.9686892,-16
2026-09-13 19:54:48.976,1789340088.9763815,-9
2026-09-13 19:54:48.984,1789340088.9840739,7
2026-09-13 19:54:48.991,1789340088.9917662,9
2026-09-13 19:54:48.999,1789340088.9994586,89
2026-09-13 19:54:49.007,1789340089.007151,368
2026-09-13 19:54:49.014,1789340089.014843,785
2026-09-13 19:54:49.022,1789340089.0225353,1079
2026-09-13 19:54:49.030,1789340089.0302277,778
2026-09-13 19:54:49.037,1789340089.037389,-89
2026-09-13 19:54:49.045,1789340089.0450814,-470
2026-09-13 19:54:49.052,1789340089.0527737,-121
2026-09-13 19:54:49.060,1789340089.060466,19
2026-09-13 19:54:49.068,1789340089.0681584,-113
2026-09-13 19:54:49.075,1789340089.0758505,-65
2026-09-13 19:54:49.083,1789340089.0835428,-7
2026-09-13 19:54:49.091,1789340089.0912352,-46
2026-09-13 19:54:49.098,1789340089.0989275,-19
2026-09-13 19:54:49.106,1789340089.1066198,14
2026-09-13 19:54:49.114,1789340089.1143122,-16
2026-09-13 19:54:49.122,1789340089.1220045,-4
2026-09-13 19:54:49.129,1789340089.1296968,50
2026-09-13 19:54:49.137,1789340089.137389,58
2026-09-13 19:54:49.145,1789340089.1450813,43
2026-09-13 19:54:49.152,1789340089.1527736,63
2026-09-13 19:54:49.160,1789340089.160466,80
2026-09-13 19:54:49.168,1789340089.1681583,72
2026-09-13 19:54:49.175,1789340089.1758506,77
2026-09-13 19:54:49.183,1789340089.183543,97
2026-09-13 19:54:49.191,1789340089.1912353,111
2026-09-13 19:54:49.198,1789340089.1989274,123
2026-09-13 19:54:49.206,1789340089.2066197,145
2026-09-13 19:54:49.214,1789340089.214312,179
2026-09-13 19:54:49.222,1789340089.2220044,223
2026-09-13 19:54:49.229,1789340089.2296968,254
2026-09-13 19:54:49.237,1789340089.237389,281
2026-09-13 19:54:49.245,1789340089.2450814,310
2026-09-13 19:54:49.252,1789340089.2527738,322
2026-09-13 19:54:49.260,1789340089.2604659,320
2026-09-13 19:54:49.268,1789340089.2681582,303
2026-09-13 19:54:49.275,1789340089.2758505,249
2026-09-13 19:54:49.283,1789340089.2835429,174
2026-09-13 19:54:49.291,1789340089.2912352,101
2026-09-13 19:54:49.298,1789340089.2989275,26
2026-09-13 19:54:49.306,1789340089.30662,-55
2026-09-13 19:54:49.314,1789340089.3143122,-106
2026-09-13 19:54:49.322,1789340089.3220043,-106
2026-09-13 19:54:49.329,1789340089.3296967,-106
2026-09-13 19:54:49.337,1789340089.337389,-126
2026-09-13 19:54:49.345,1789340089.3450813,-111
2026-09-13 19:54:49.352,1789340089.3527737,-94
2026-09-13 19:54:49.360,1789340089.360466,-101
2026-09-13 19:54:49.368,1789340089.3681583,-99
2026-09-13 19:54:49.375,1789340089.3758507,-84
2026-09-13 19:54:49.383,1789340089.3835428,-82
2026-09-13 19:54:49.391,1789340089.391235,-80
2026-09-13 19:54:49.398,1789340089.3989275,-65
2026-09-13 19:54:49.406,1789340089.4066198,-60
2026-09-13 19:54:49.414,1789340089.4143121,-50
2026-09-13 19:54:49.422,1789340089.4220045,-24
2026-09-13 19:54:49.429,1789340089.4296968,-12
2026-09-13 19:54:49.437,1789340089.4373891,-16
2026-09-13 19:54:49.445,1789340089.4450812,-12
2026-09-13 19:54:49.452,1789340089.4527736,-2
2026-09-13 19:54:49.460,1789340089.460466,0
2026-09-13 19:54:49.468,1789340089.4681582,-7
2026-09-13 19:54:49.475,1789340089.4758506,-9
2026-09-13 19:54:49.483,1789340089.483543,-4
2026-09-13 19:54:49.491,1789340089.4912353,4
2026-09-13 19:54:49.498,1789340089.4989276,2
2026-09-13 19:54:49.506,1789340089.5066197,-2
2026-09-13 19:54:49.514,1789340089.514312,2
2026-09-13 19:54:49.522,1789340089.5220044,16
2026-09-13 19:54:49.529,1789340089.5296967,24
2026-09-13 19:54:49.537,1789340089.537389,19
2026-09-13 19:54:49.545,1789340089.5450814,12
2026-09-13 19:54:49.552,1789340089.5527737,12
2026-09-13 19:54:49.560,1789340089.560466,24
2026-09-13 19:54:49.568,1789340089.5681584,43
2026-09-13 19:54:49.575,1789340089.5758505,60
2026-09-13 19:54:49.583,1789340089.5835428,75
2026-09-13 19:54:49.591,1789340089.5912352,82
2026-09-13 19:54:49.598,1789340089.598396,67
2026-09-13 19:54:49.606,1789340089.6060884,46
2026-09-13 19:54:49.613,1789340089.6137807,50
2026-09-13 19:54:49.621,1789340089.621473,63
2026-09-13 19:54:49.629,1789340089.6291654,46
2026-09-13 19:54:49.636,1789340089.6368575,21
2026-09-13 19:54:49.644,1789340089.6445498,24
2026-09-13 19:54:49.652,1789340089.6522422,41
2026-09-13 19:54:49.659,1789340089.6599345,38
2026-09-13 19:54:49.667,1789340089.6676269,21
2026-09-13 19:54:49.675,1789340089.6753192,33
2026-09-13 19:54:49.683,1789340089.6830115,60
2026-09-13 19:54:49.690,1789340089.6907039,50
2026-09-13 19:54:49.698,1789340089.698396,36
2026-09-13 19:54:49.706,1789340089.7060883,150
2026-09-13 19:54:49.713,1789340089.7137806,528
2026-09-13 19:54:49.721,1789340089.721473,1057
2026-09-13 19:54:49.729,1789340089.7291653,1302
2026-09-13 19:54:49.736,1789340089.7368577,812
2026-09-13 19:54:49.744,1789340089.74455,-41
2026-09-13 19:54:49.752,1789340089.7522423,-281
2026-09-13 19:54:49.759,1789340089.7599344,-9
2026-09-13 19:54:49.767,1789340089.7676268,0
2026-09-13 19:54:49.775,1789340089.775319,-104
2026-09-13 19:54:49.783,1789340089.7830114,-38
2026-09-13 19:54:49.790,1789340089.7907038,-12
2026-09-13 19:54:49.798,1789340089.798396,-36
2026-09-13 19:54:49.806,1789340089.8060884,-12
2026-09-13 19:54:49.813,1789340089.8137808,-2
2026-09-13 19:54:49.821,1789340089.821473,-2
2026-09-13 19:54:49.829,1789340089.8291652,19
2026-09-13 19:54:49.836,1789340089.8368576,31
2026-09-13 19:54:49.844,1789340089.84455,33
2026-09-13 19:54:49.852,1789340089.8522422,43
2026-09-13 19:54:49.859,1789340089.8599346,53
2026-09-13 19:54:49.867,1789340089.867627,55
2026-09-13 19:54:49.875,1789340089.8753192,60
2026-09-13 19:54:49.883,1789340089.8830113,65
2026-09-13 19:54:49.890,1789340089.8907037,70
2026-09-13 19:54:49.898,1789340089.898396,82
2026-09-13 19:54:49.906,1789340089.9060884,94
2026-09-13 19:54:49.913,1789340089.9137807,111
2026-09-13 19:54:49.921,1789340089.921473,133
2026-09-13 19:54:49.929,1789340089.9291654,164
2026-09-13 19:54:49.936,1789340089.9368577,196
2026-09-13 19:54:49.944,1789340089.9445498,218
2026-09-13 19:54:49.952,1789340089.9522421,227
2026-09-13 19:54:49.959,1789340089.9599345,232
2026-09-13 19:54:49.967,1789340089.9676268,232
2026-09-13 19:54:49.975,1789340089.9753191,230
2026-09-13 19:54:49.983,1789340089.9830115,208
2026-09-13 19:54:49.990,1789340089.9907038,150
2026-09-13 19:54:49.998,1789340089.9983962,84
2026-09-13 19:54:50.006,1789340090.0060883,31
2026-09-13 19:54:50.013,1789340090.0137806,-16
2026-09-13 19:54:50.021,1789340090.021473,-50
2026-09-13 19:54:50.029,1789340090.0291653,-63
2026-09-13 19:54:50.036,1789340090.0368576,-67
2026-09-13 19:54:50.044,1789340090.04455,-65
2026-09-13 19:54:50.052,1789340090.0522423,-63
2026-09-13 19:54:50.059,1789340090.0599346,-63
2026-09-13 19:54:50.067,1789340090.0676267,-53
2026-09-13 19:54:50.075,1789340090.075319,-36
2026-09-13 19:54:50.083,1789340090.0830114,-31
2026-09-13 19:54:50.090,1789340090.0907037,-33
2026-09-13 19:54:50.098,1789340090.098396,-29
2026-09-13 19:54:50.106,1789340090.1060884,-19
2026-09-13 19:54:50.113,1789340090.1137807,-21
2026-09-13 19:54:50.121,1789340090.121473,-19
2026-09-13 19:54:50.129,1789340090.1291654,-14
2026-09-13 19:54:50.136,1789340090.1368575,-14
2026-09-13 19:54:50.144,1789340090.1445498,-12
2026-09-13 19:54:50.152,1789340090.1522422,-9
2026-09-13 19:54:50.159,1789340090.1594033,-12
2026-09-13 19:54:50.167,1789340090.1670957,-7
2026-09-13 19:54:50.174,1789340090.174788,-4
2026-09-13 19:54:50.182,1789340090.1824803,-7
2026-09-13 19:54:50.190,1789340090.1901727,-2
2026-09-13 19:54:50.197,1789340090.1978648,7
2026-09-13 19:54:50.205,1789340090.205557,2
2026-09-13 19:54:50.213,1789340090.2132494,0
2026-09-13 19:54:50.220,1789340090.2209418,12
2026-09-13 19:54:50.228,1789340090.228634,12
2026-09-13 19:54:50.236,1789340090.2363265,2
2026-09-13 19:54:50.244,1789340090.2440188,7
2026-09-13 19:54:50.251,1789340090.2517111,14
2026-09-13 19:54:50.259,1789340090.2594032,12
2026-09-13 19:54:50.267,1789340090.2670956,7
2026-09-13 19:54:50.274,1789340090.274788,2
2026-09-13 19:54:50.282,1789340090.2824802,-9
2026-09-13 19:54:50.290,1789340090.2901726,-7
2026-09-13 19:54:50.297,1789340090.297865,21
2026-09-13 19:54:50.305,1789340090.3055573,48
2026-09-13 19:54:50.313,1789340090.3132496,50
2026-09-13 19:54:50.320,1789340090.3209417,53
2026-09-13 19:54:50.328,1789340090.328634,63
2026-09-13 19:54:50.336,1789340090.3363264,65
2026-09-13 19:54:50.344,1789340090.3440187,58
2026-09-13 19:54:50.351,1789340090.351711,53
2026-09-13 19:54:50.359,1789340090.3594034,36
2026-09-13 19:54:50.367,1789340090.3670957,14
2026-09-13 19:54:50.374,1789340090.374788,7
2026-09-13 19:54:50.382,1789340090.3824801,4
2026-09-13 19:54:50.390,1789340090.3901725,4
2026-09-13 19:54:50.397,1789340090.3978648,12
2026-09-13 19:54:50.405,1789340090.4055572,16
2026-09-13 19:54:50.413,1789340090.4132495,2
2026-09-13 19:54:50.420,1789340090.4209418,-4
2026-09-13 19:54:50.428,1789340090.4286342,16
2026-09-13 19:54:50.436,1789340090.4363265,36
2026-09-13 19:54:50.444,1789340090.4440186,113
2026-09-13 19:54:50.451,1789340090.451711,404
2026-09-13 19:54:50.459,1789340090.4594033,885
2026-09-13 19:54:50.467,1789340090.4670956,1188
2026-09-13 19:54:50.474,1789340090.474788,819
2026-09-13 19:54:50.482,1789340090.4824803,-9
2026-09-13 19:54:50.490,1789340090.4901726,-305
2026-09-13 19:54:50.497,1789340090.497865,-43
2026-09-13 19:54:50.505,1789340090.505557,-12
2026-09-13 19:54:50.513,1789340090.5132494,-126
2026-09-13 19:54:50.520,1789340090.5209417,-70
2026-09-13 19:54:50.528,1789340090.528634,-33
2026-09-13 19:54:50.536,1789340090.5363264,-67
2026-09-13 19:54:50.544,1789340090.5440187,-50
2026-09-13 19:54:50.551,1789340090.551711,-26
2026-09-13 19:54:50.559,1789340090.5594034,-38
2026-09-13 19:54:50.567,1789340090.5670955,-31
2026-09-13 19:54:50.574,1789340090.5747879,-2
2026-09-13 19:54:50.582,1789340090.5824802,-2
2026-09-13 19:54:50.590,1789340090.5901725,-4
2026-09-13 19:54:50.597,1789340090.5978649,7
2026-09-13 19:54:50.605,1789340090.6055572,21
2026-09-13 19:54:50.613,1789340090.6132495,33
2026-09-13 19:54:50.620,1789340090.6209419,46
2026-09-13 19:54:50.628,1789340090.628634,46
2026-09-13 19:54:50.636,1789340090.6363263,53
2026-09-13 19:54:50.644,1789340090.6440187,67
2026-09-13 19:54:50.651,1789340090.651711,80
2026-09-13 19:54:50.659,1789340090.6594033,94
2026-09-13 19:54:50.667,1789340090.6670957,121
2026-09-13 19:54:50.674,1789340090.674788,152
2026-09-13 19:54:50.682,1789340090.6824803,181
2026-09-13 19:54:50.690,1789340090.6901727,196
2026-09-13 19:54:50.697,1789340090.6978648,201
2026-09-13 19:54:50.705,1789340090.705557,201
2026-09-13 19:54:50.713,1789340090.7132494,198
2026-09-13 19:54:50.720,1789340090.7204108,184
2026-09-13 19:54:50.728,1789340090.7281032,135
2026-09-13 19:54:50.735,1789340090.7357955,55
2026-09-13 19:54:50.743,1789340090.7434878,0
2026-09-13 19:54:50.751,1789340090.7511802,-21
2026-09-13 19:54:50.758,1789340090.7588723,-46
2026-09-13 19:54:50.766,1789340090.7665646,-65
2026-09-13 19:54:50.774,1789340090.774257,-70
2026-09-13 19:54:50.781,1789340090.7819493,-80
2026-09-13 19:54:50.789,1789340090.7896416,-92
2026-09-13 19:54:50.797,1789340090.797334,-84
2026-09-13 19:54:50.805,1789340090.8050263,-67
2026-09-13 19:54:50.812,1789340090.8127186,-63
2026-09-13 19:54:50.820,1789340090.8204107,-60
2026-09-13 19:54:50.828,1789340090.828103,-46
2026-09-13 19:54:50.835,1789340090.8357954,-41
2026-09-13 19:54:50.843,1789340090.8434877,-46
2026-09-13 19:54:50.851,1789340090.85118,-43
2026-09-13 19:54:50.858,1789340090.8588724,-38
2026-09-13 19:54:50.866,1789340090.8665648,-43
2026-09-13 19:54:50.874,1789340090.874257,-48
2026-09-13 19:54:50.881,1789340090.8819492,-41
2026-09-13 19:54:50.889,1789340090.8896415,-26
2026-09-13 19:54:50.897,1789340090.8973339,-19
2026-09-13 19:54:50.905,1789340090.9050262,-24
2026-09-13 19:54:50.912,1789340090.9127185,-26
2026-09-13 19:54:50.920,1789340090.9204109,-19
2026-09-13 19:54:50.928,1789340090.9281032,-16
2026-09-13 19:54:50.935,1789340090.9357955,-24
2026-09-13 19:54:50.943,1789340090.9434876,-24
2026-09-13 19:54:50.951,1789340090.95118,-12
2026-09-13 19:54:50.958,1789340090.9588723,-12
2026-09-13 19:54:50.966,1789340090.9665647,-24
2026-09-13 19:54:50.974,1789340090.974257,-26
2026-09-13 19:54:50.981,1789340090.9819493,-24
2026-09-13 19:54:50.989,1789340090.9896417,-19
2026-09-13 19:54:50.997,1789340090.997334,-21
2026-09-13 19:54:51.005,1789340091.005026,-26
2026-09-13 19:54:51.012,1789340091.0127184,-7
2026-09-13 19:54:51.020,1789340091.0204108,14
2026-09-13 19:54:51.028,1789340091.028103,4
2026-09-13 19:54:51.035,1789340091.0357955,-2
2026-09-13 19:54:51.043,1789340091.0434878,-9
2026-09-13 19:54:51.051,1789340091.0511801,-14
2026-09-13 19:54:51.058,1789340091.0588725,-2
2026-09-13 19:54:51.066,1789340091.0665646,12
2026-09-13 19:54:51.074,1789340091.074257,26
2026-09-13 19:54:51.081,1789340091.0819492,46
2026-09-13 19:54:51.089,1789340091.0896416,58
2026-09-13 19:54:51.097,1789340091.097334,50
2026-09-13 19:54:51.105,1789340091.1050262,31
2026-09-13 19:54:51.112,1789340091.1127186,24
2026-09-13 19:54:51.120,1789340091.120411,21
2026-09-13 19:54:51.128,1789340091.128103,4
2026-09-13 19:54:51.135,1789340091.1357954,-2
2026-09-13 19:54:51.143,1789340091.1434877,14
2026-09-13 19:54:51.151,1789340091.15118,16
2026-09-13 19:54:51.158,1789340091.1588724,2
2026-09-13 19:54:51.166,1789340091.1665647,0
2026-09-13 19:54:51.174,1789340091.174257,4
2026-09-13 19:54:51.181,1789340091.1819494,0
2026-09-13 19:54:51.189,1789340091.1896415,-2
2026-09-13 19:54:51.197,1789340091.1973338,0
2026-09-13 19:54:51.205,1789340091.2050261,7
2026-09-13 19:54:51.212,1789340091.2127185,111
2026-09-13 19:54:51.220,1789340091.2204108,421
2026-09-13 19:54:51.228,1789340091.2281032,870
2026-09-13 19:54:51.235,1789340091.2357955,1122
2026-09-13 19:54:51.243,1789340091.2434878,705
2026-09-13 19:54:51.251,1789340091.2511802,-104
2026-09-13 19:54:51.258,1789340091.2588723,-303
2026-09-13 19:54:51.266,1789340091.2665646,0
2026-09-13 19:54:51.274,1789340091.274257,2
2026-09-13 19:54:51.281,1789340091.2814078,-121
2026-09-13 19:54:51.289,1789340091.2891002,-46
2026-09-13 19:54:51.296,1789340091.2967925,-7
2026-09-13 19:54:51.304,1789340091.3044848,-63
2026-09-13 19:54:51.312,1789340091.3121772,-55
2026-09-13 19:54:51.319,1789340091.3198693,-9
2026-09-13 19:54:51.327,1789340091.3275616,-7
2026-09-13 19:54:51.335,1789340091.335254,-16
2026-09-13 19:54:51.342,1789340091.3429463,9
2026-09-13 19:54:51.350,1789340091.3506386,43
2026-09-13 19:54:51.358,1789340091.358331,36
2026-09-13 19:54:51.366,1789340091.3660233,24
2026-09-13 19:54:51.373,1789340091.3737156,38
2026-09-13 19:54:51.381,1789340091.3814077,48
2026-09-13 19:54:51.389,1789340091.3891,46
2026-09-13 19:54:51.396,1789340091.3967924,67
2026-09-13 19:54:51.404,1789340091.4044847,113
2026-09-13 19:54:51.412,1789340091.412177,128
2026-09-13 19:54:51.419,1789340091.4198694,118
2026-09-13 19:54:51.427,1789340091.4275618,143
2026-09-13 19:54:51.435,1789340091.435254,184
2026-09-13 19:54:51.442,1789340091.4429462,201
2026-09-13 19:54:51.450,1789340091.4506385,215
2026-09-13 19:54:51.458,1789340091.4583309,242
2026-09-13 19:54:51.466,1789340091.4660232,259
2026-09-13 19:54:51.473,1789340091.4737155,252
2026-09-13 19:54:51.481,1789340091.4814079,240
2026-09-13 19:54:51.489,1789340091.4891002,218
2026-09-13 19:54:51.496,1789340091.4967926,167
2026-09-13 19:54:51.504,1789340091.5044847,106
2026-09-13 19:54:51.512,1789340091.512177,53
2026-09-13 19:54:51.519,1789340091.5198693,2
2026-09-13 19:54:51.527,1789340091.5275617,-46
2026-09-13 19:54:51.535,1789340091.535254,-60
2026-09-13 19:54:51.542,1789340091.5429463,-48
2026-09-13 19:54:51.550,1789340091.5506387,-43
2026-09-13 19:54:51.558,1789340091.558331,-50
2026-09-13 19:54:51.566,1789340091.566023,-58
2026-09-13 19:54:51.573,1789340091.5737154,-55
2026-09-13 19:54:51.581,1789340091.5814078,-43
2026-09-13 19:54:51.589,1789340091.5891001,-31
2026-09-13 19:54:51.596,1789340091.5967925,-21
2026-09-13 19:54:51.604,1789340091.6044848,-9
2026-09-13 19:54:51.612,1789340091.6121771,-9
2026-09-13 19:54:51.619,1789340091.6198695,-12
2026-09-13 19:54:51.627,1789340091.6275616,-7
2026-09-13 19:54:51.635,1789340091.635254,-12
2026-09-13 19:54:51.642,1789340091.6429462,-16
2026-09-13 19:54:51.650,1789340091.6506386,-7
2026-09-13 19:54:51.658,1789340091.658331,4
2026-09-13 19:54:51.666,1789340091.6660233,4
2026-09-13 19:54:51.673,1789340091.6737156,0
2026-09-13 19:54:51.681,1789340091.681408,7
2026-09-13 19:54:51.689,1789340091.6891,7
2026-09-13 19:54:51.696,1789340091.6967924,-19
2026-09-13 19:54:51.704,1789340091.7044847,-19
2026-09-13 19:54:51.712,1789340091.712177,21
2026-09-13 19:54:51.719,1789340091.7198694,29
2026-09-13 19:54:51.727,1789340091.7275617,7
2026-09-13 19:54:51.735,1789340091.735254,12
2026-09-13 19:54:51.742,1789340091.7429464,14
2026-09-13 19:54:51.750,1789340091.7506385,-4
2026-09-13 19:54:51.758,1789340091.7583308,2
2026-09-13 19:54:51.766,1789340091.7660232,19
2026-09-13 19:54:51.773,1789340091.7737155,21
2026-09-13 19:54:51.781,1789340091.7814078,14
2026-09-13 19:54:51.789,1789340091.7891002,9
2026-09-13 19:54:51.796,1789340091.7967925,12
2026-09-13 19:54:51.804,1789340091.8044848,24
2026-09-13 19:54:51.812,1789340091.8121772,38
2026-09-13 19:54:51.819,1789340091.8198693,43
2026-09-13 19:54:51.827,1789340091.8275616,65
2026-09-13 19:54:51.835,1789340091.835254,89
2026-09-13 19:54:51.842,1789340091.8423948,75
2026-09-13 19:54:51.850,1789340091.8500872,46
2026-09-13 19:54:51.857,1789340091.8577795,33
2026-09-13 19:54:51.865,1789340091.8654718,31
2026-09-13 19:54:51.873,1789340091.8731642,26
2026-09-13 19:54:51.880,1789340091.8808563,21
2026-09-13 19:54:51.888,1789340091.8885486,16
2026-09-13 19:54:51.896,1789340091.896241,21
2026-09-13 19:54:51.903,1789340091.9039333,19
2026-09-13 19:54:51.911,1789340091.9116256,4
2026-09-13 19:54:51.919,1789340091.919318,19
2026-09-13 19:54:51.927,1789340091.9270103,38
2026-09-13 19:54:51.934,1789340091.9347026,24
2026-09-13 19:54:51.942,1789340091.9423947,0
2026-09-13 19:54:51.950,1789340091.950087,19
2026-09-13 19:54:51.957,1789340091.9577794,160
2026-09-13 19:54:51.965,1789340091.9654717,492
2026-09-13 19:54:51.973,1789340091.973164,911
2026-09-13 19:54:51.980,1789340091.9808564,1076
2026-09-13 19:54:51.988,1789340091.9885488,577
2026-09-13 19:54:51.996,1789340091.996241,-237
2026-09-13 19:54:52.003,1789340092.0039332,-378
2026-09-13 19:54:52.011,1789340092.0116255,-41
2026-09-13 19:54:52.019,1789340092.0193179,-21
2026-09-13 19:54:52.027,1789340092.0270102,-84
2026-09-13 19:54:52.034,1789340092.0347025,7
2026-09-13 19:54:52.042,1789340092.0423949,7
2026-09-13 19:54:52.050,1789340092.0500872,-33
2026-09-13 19:54:52.057,1789340092.0577796,9
2026-09-13 19:54:52.065,1789340092.0654716,50
2026-09-13 19:54:52.073,1789340092.073164,41
2026-09-13 19:54:52.080,1789340092.0808563,24
2026-09-13 19:54:52.088,1789340092.0885487,33
2026-09-13 19:54:52.096,1789340092.096241,43
2026-09-13 19:54:52.103,1789340092.1039333,33
2026-09-13 19:54:52.111,1789340092.1116257,53
2026-09-13 19:54:52.119,1789340092.119318,101
2026-09-13 19:54:52.127,1789340092.12701,116
2026-09-13 19:54:52.134,1789340092.1347024,111
2026-09-13 19:54:52.142,1789340092.1423948,128
2026-09-13 19:54:52.150,1789340092.150087,152
2026-09-13 19:54:52.157,1789340092.1577795,150
2026-09-13 19:54:52.165,1789340092.1654718,152
2026-09-13 19:54:52.173,1789340092.1731641,198
2026-09-13 19:54:52.180,1789340092.1808565,254
2026-09-13 19:54:52.188,1789340092.1885486,276
2026-09-13 19:54:52.196,1789340092.196241,286
2026-09-13 19:54:52.203,1789340092.2039332,310
2026-09-13 19:54:52.211,1789340092.2116256,322
2026-09-13 19:54:52.219,1789340092.219318,310
2026-09-13 19:54:52.227,1789340092.2270103,283
2026-09-13 19:54:52.234,1789340092.2347026,240
2026-09-13 19:54:52.242,1789340092.242395,184
2026-09-13 19:54:52.250,1789340092.250087,99
2026-09-13 19:54:52.257,1789340092.2577794,7
2026-09-13 19:54:52.265,1789340092.2654717,-48
2026-09-13 19:54:52.273,1789340092.273164,-84
2026-09-13 19:54:52.280,1789340092.2808564,-109
2026-09-13 19:54:52.288,1789340092.2885487,-113
2026-09-13 19:54:52.296,1789340092.296241,-109
2026-09-13 19:54:52.303,1789340092.3039334,-106
2026-09-13 19:54:52.311,1789340092.3116255,-106
2026-09-13 19:54:52.319,1789340092.3193178,-104
2026-09-13 19:54:52.327,1789340092.3270102,-92
2026-09-13 19:54:52.334,1789340092.3347025,-72
2026-09-13 19:54:52.342,1789340092.3423948,-67
2026-09-13 19:54:52.350,1789340092.3500872,-75
2026-09-13 19:54:52.357,1789340092.3577795,-70
2026-09-13 19:54:52.365,1789340092.3654718,-53
2026-09-13 19:54:52.373,1789340092.3731642,-36
2026-09-13 19:54:52.380,1789340092.3808563,-29
2026-09-13 19:54:52.388,1789340092.3885486,-38
2026-09-13 19:54:52.396,1789340092.396241,-50
2026-09-13 19:54:52.403,1789340092.403402,-53
2026-09-13 19:54:52.411,1789340092.4110944,-60
2026-09-13 19:54:52.418,1789340092.4187868,-60
2026-09-13 19:54:52.426,1789340092.426479,-29
2026-09-13 19:54:52.434,1789340092.4341714,12
2026-09-13 19:54:52.441,1789340092.4418635,16
2026-09-13 19:54:52.449,1789340092.4495559,-2
2026-09-13 19:54:52.457,1789340092.4572482,-14
2026-09-13 19:54:52.464,1789340092.4649405,-12
2026-09-13 19:54:52.472,1789340092.472633,0
2026-09-13 19:54:52.480,1789340092.4803252,0
2026-09-13 19:54:52.488,1789340092.4880176,0
2026-09-13 19:54:52.495,1789340092.49571,7
2026-09-13 19:54:52.503,1789340092.503402,0
2026-09-13 19:54:52.511,1789340092.5110943,2
2026-09-13 19:54:52.518,1789340092.5187867,26
2026-09-13 19:54:52.526,1789340092.526479,43
2026-09-13 19:54:52.534,1789340092.5341713,46
2026-09-13 19:54:52.541,1789340092.5418637,58
2026-09-13 19:54:52.549,1789340092.549556,82
2026-09-13 19:54:52.557,1789340092.5572484,94
2026-09-13 19:54:52.564,1789340092.5649405,92
2026-09-13 19:54:52.572,1789340092.5726328,80
2026-09-13 19:54:52.580,1789340092.5803251,53
2026-09-13 19:54:52.588,1789340092.5880175,29
2026-09-13 19:54:52.595,1789340092.5957098,38
2026-09-13 19:54:52.603,1789340092.6034021,55
2026-09-13 19:54:52.611,1789340092.6110945,48
2026-09-13 19:54:52.618,1789340092.6187868,41
2026-09-13 19:54:52.626,1789340092.626479,46
2026-09-13 19:54:52.634,1789340092.6341712,46
2026-09-13 19:54:52.641,1789340092.6418636,43
2026-09-13 19:54:52.649,1789340092.649556,38
2026-09-13 19:54:52.657,1789340092.6572483,72
2026-09-13 19:54:52.664,1789340092.6649406,293
2026-09-13 19:54:52.672,1789340092.672633,739
2026-09-13 19:54:52.680,1789340092.6803253,1171
2026-09-13 19:54:52.688,1789340092.6880174,1115
2026-09-13 19:54:52.695,1789340092.6957097,361
2026-09-13 19:54:52.703,1789340092.703402,-310
2026-09-13 19:54:52.711,1789340092.7110944,-191
2026-09-13 19:54:52.718,1789340092.7187867,55
2026-09-13 19:54:52.726,1789340092.726479,-50
2026-09-13 19:54:52.734,1789340092.7341714,-82
2026-09-13 19:54:52.741,1789340092.7418637,21
2026-09-13 19:54:52.749,1789340092.7495558,4
2026-09-13 19:54:52.757,1789340092.7572482,-31
2026-09-13 19:54:52.764,1789340092.7649405,14
2026-09-13 19:54:52.772,1789340092.7726328,31
2026-09-13 19:54:52.780,1789340092.7803252,9
2026-09-13 19:54:52.788,1789340092.7880175,21
2026-09-13 19:54:52.795,1789340092.7957098,58
2026-09-13 19:54:52.803,1789340092.8034022,75
2026-09-13 19:54:52.811,1789340092.8110943,65
2026-09-13 19:54:52.818,1789340092.8187866,55
2026-09-13 19:54:52.826,1789340092.826479,67
2026-09-13 19:54:52.834,1789340092.8341713,92
2026-09-13 19:54:52.841,1789340092.8418636,104
2026-09-13 19:54:52.849,1789340092.849556,106
2026-09-13 19:54:52.857,1789340092.8572483,116
2026-09-13 19:54:52.864,1789340092.8649406,138
2026-09-13 19:54:52.872,1789340092.8726327,167
2026-09-13 19:54:52.880,1789340092.880325,184
2026-09-13 19:54:52.888,1789340092.8880174,201
2026-09-13 19:54:52.895,1789340092.8957098,230
2026-09-13 19:54:52.903,1789340092.903402,252
2026-09-13 19:54:52.911,1789340092.9110944,261
2026-09-13 19:54:52.918,1789340092.9187868,269
2026-09-13 19:54:52.926,1789340092.926479,264
2026-09-13 19:54:52.934,1789340092.9341714,247
2026-09-13 19:54:52.941,1789340092.9418635,201
2026-09-13 19:54:52.949,1789340092.9495559,143
2026-09-13 19:54:52.957,1789340092.9572482,82
2026-09-13 19:54:52.964,1789340092.9644096,14
2026-09-13 19:54:52.972,1789340092.972102,-31
2026-09-13 19:54:52.979,1789340092.9797943,-48
2026-09-13 19:54:52.987,1789340092.9874866,-60
2026-09-13 19:54:52.995,1789340092.995179,-70
2026-09-13 19:54:53.002,1789340093.002871,-67
2026-09-13 19:54:53.010,1789340093.0105634,-60
2026-09-13 19:54:53.018,1789340093.0182557,-58
2026-09-13 19:54:53.025,1789340093.025948,-58
2026-09-13 19:54:53.033,1789340093.0336404,-48
2026-09-13 19:54:53.041,1789340093.0413327,-48
2026-09-13 19:54:53.049,1789340093.049025,-50
2026-09-13 19:54:53.056,1789340093.0567174,-31
2026-09-13 19:54:53.064,1789340093.0644095,-12
2026-09-13 19:54:53.072,1789340093.0721018,-12
2026-09-13 19:54:53.079,1789340093.0797942,-14
2026-09-13 19:54:53.087,1789340093.0874865,0
2026-09-13 19:54:53.095,1789340093.0951788,19
2026-09-13 19:54:53.102,1789340093.1028712,14
2026-09-13 19:54:53.110,1789340093.1105635,-2
2026-09-13 19:54:53.118,1789340093.1182559,-4
2026-09-13 19:54:53.125,1789340093.125948,0
2026-09-13 19:54:53.133,1789340093.1336403,-2
2026-09-13 19:54:53.141,1789340093.1413326,2
2026-09-13 19:54:53.149,1789340093.149025,9
2026-09-13 19:54:53.156,1789340093.1567173,7
2026-09-13 19:54:53.164,1789340093.1644096,-2
2026-09-13 19:54:53.172,1789340093.172102,0
2026-09-13 19:54:53.179,1789340093.1797943,16
2026-09-13 19:54:53.187,1789340093.1874864,31
2026-09-13 19:54:53.195,1789340093.1951787,16
2026-09-13 19:54:53.202,1789340093.202871,-2
2026-09-13 19:54:53.210,1789340093.2105634,0
2026-09-13 19:54:53.218,1789340093.2182558,-7
2026-09-13 19:54:53.225,1789340093.225948,-9
2026-09-13 19:54:53.233,1789340093.2336404,4
2026-09-13 19:54:53.241,1789340093.2413328,24
2026-09-13 19:54:53.249,1789340093.2490249,43
2026-09-13 19:54:53.256,1789340093.2567172,60
2026-09-13 19:54:53.264,1789340093.2644095,63
2026-09-13 19:54:53.272,1789340093.2721019,55
2026-09-13 19:54:53.279,1789340093.2797942,48
2026-09-13 19:54:53.287,1789340093.2874866,55
2026-09-13 19:54:53.295,1789340093.295179,63
2026-09-13 19:54:53.302,1789340093.3028712,33
2026-09-13 19:54:53.310,1789340093.3105633,7
2026-09-13 19:54:53.318,1789340093.3182557,12
2026-09-13 19:54:53.325,1789340093.325948,12
2026-09-13 19:54:53.333,1789340093.3336403,7
2026-09-13 19:54:53.341,1789340093.3413327,12
2026-09-13 19:54:53.349,1789340093.349025,14
2026-09-13 19:54:53.356,1789340093.3567173,14
2026-09-13 19:54:53.364,1789340093.3644097,16
2026-09-13 19:54:53.372,1789340093.3721018,12
2026-09-13 19:54:53.379,1789340093.3797941,16
2026-09-13 19:54:53.387,1789340093.3874865,147
2026-09-13 19:54:53.395,1789340093.3951788,504
2026-09-13 19:54:53.402,1789340093.4028711,967
2026-09-13 19:54:53.410,1789340093.4105635,1161
2026-09-13 19:54:53.418,1789340093.4182558,676
2026-09-13 19:54:53.425,1789340093.4259481,-111
2026-09-13 19:54:53.433,1789340093.4336402,-274
2026-09-13 19:54:53.441,1789340093.4413326,-24
2026-09-13 19:54:53.449,1789340093.449025,-48
2026-09-13 19:54:53.456,1789340093.4567173,-106
2026-09-13 19:54:53.464,1789340093.4644096,-14
2026-09-13 19:54:53.472,1789340093.472102,-19
2026-09-13 19:54:53.479,1789340093.4797943,-65
2026-09-13 19:54:53.487,1789340093.4874866,-24
2026-09-13 19:54:53.495,1789340093.495179,-4
2026-09-13 19:54:53.502,1789340093.502871,-24
2026-09-13 19:54:53.510,1789340093.5105634,-7
2026-09-13 19:54:53.518,1789340093.5182557,9
2026-09-13 19:54:53.525,1789340093.5254169,4
2026-09-13 19:54:53.533,1789340093.5331092,14
2026-09-13 19:54:53.540,1789340093.5408015,36
2026-09-13 19:54:53.548,1789340093.5484939,43
2026-09-13 19:54:53.556,1789340093.5561862,48
2026-09-13 19:54:53.563,1789340093.5638783,58
2026-09-13 19:54:53.571,1789340093.5715706,70
2026-09-13 19:54:53.579,1789340093.579263,77
2026-09-13 19:54:53.586,1789340093.5869553,99
2026-09-13 19:54:53.594,1789340093.5946476,140
2026-09-13 19:54:53.602,1789340093.60234,160
2026-09-13 19:54:53.610,1789340093.6100323,169
2026-09-13 19:54:53.617,1789340093.6177247,196
2026-09-13 19:54:53.625,1789340093.6254168,223
2026-09-13 19:54:53.633,1789340093.633109,235
2026-09-13 19:54:53.640,1789340093.6408014,244
2026-09-13 19:54:53.648,1789340093.6484938,252
2026-09-13 19:54:53.656,1789340093.656186,247
2026-09-13 19:54:53.663,1789340093.6638784,210
2026-09-13 19:54:53.671,1789340093.6715708,155
2026-09-13 19:54:53.679,1789340093.679263,101
2026-09-13 19:54:53.686,1789340093.6869552,58
2026-09-13 19:54:53.694,1789340093.6946476,24
2026-09-13 19:54:53.702,1789340093.70234,9
2026-09-13 19:54:53.710,1789340093.7100322,2
2026-09-13 19:54:53.717,1789340093.7177246,-12
2026-09-13 19:54:53.725,1789340093.725417,-24
2026-09-13 19:54:53.733,1789340093.7331092,-9
2026-09-13 19:54:53.740,1789340093.7408016,-2
2026-09-13 19:54:53.748,1789340093.7484937,-9
2026-09-13 19:54:53.756,1789340093.756186,-4
2026-09-13 19:54:53.763,1789340093.7638783,4
2026-09-13 19:54:53.771,1789340093.7715707,16
2026-09-13 19:54:53.779,1789340093.779263,26
2026-09-13 19:54:53.786,1789340093.7869554,31
2026-09-13 19:54:53.794,1789340093.7946477,36
2026-09-13 19:54:53.802,1789340093.80234,33
2026-09-13 19:54:53.810,1789340093.8100321,24
2026-09-13 19:54:53.817,1789340093.8177245,41
2026-09-13 19:54:53.825,1789340093.8254168,67
