timestamp_local,timestamp_epoch_s,ecg_uV
2026-09-13 19:07:41.526,1789337261.526773,-58
2026-09-13 19:07:41.534,1789337261.5344653,-72
2026-09-13 19:07:41.542,1789337261.5421576,-94
2026-09-13 19:07:41.549,1789337261.54985,-113
2026-09-13 19:07:41.557,1789337261.5575423,-118
2026-09-13 19:07:41.565,1789337261.5652344,-118
2026-09-13 19:07:41.572,1789337261.5729268,-121
2026-09-13 19:07:41.580,1789337261.580619,-118
2026-09-13 19:07:41.588,1789337261.5883114,-116
2026-09-13 19:07:41.596,1789337261.5960038,-123
2026-09-13 19:07:41.603,1789337261.603696,-133
2026-09-13 19:07:41.611,1789337261.6113884,-130
2026-09-13 19:07:41.619,1789337261.6190808,-60
2026-09-13 19:07:41.626,1789337261.6267729,133
2026-09-13 19:07:41.634,1789337261.6344652,465
2026-09-13 19:07:41.642,1789337261.6421576,698
2026-09-13 19:07:41.649,1789337261.64985,303
2026-09-13 19:07:41.657,1789337261.6575422,-375
2026-09-13 19:07:41.665,1789337261.6652346,-385
2026-09-13 19:07:41.672,1789337261.672927,-63
2026-09-13 19:07:41.680,1789337261.6806192,-109
2026-09-13 19:07:41.688,1789337261.6883113,-208
2026-09-13 19:07:41.696,1789337261.6960037,-130
2026-09-13 19:07:41.703,1789337261.703696,-116
2026-09-13 19:07:41.711,1789337261.7113883,-157
2026-09-13 19:07:41.719,1789337261.7190807,-135
2026-09-13 19:07:41.726,1789337261.726773,-113
2026-09-13 19:07:41.734,1789337261.7344654,-121
2026-09-13 19:07:41.742,1789337261.7421577,-113
2026-09-13 19:07:41.749,1789337261.7498498,-94
2026-09-13 19:07:41.757,1789337261.7575421,-87
2026-09-13 19:07:41.765,1789337261.7652345,-84
2026-09-13 19:07:41.772,1789337261.7729268,-82
2026-09-13 19:07:41.780,1789337261.7806191,-70
2026-09-13 19:07:41.788,1789337261.7883115,-60
2026-09-13 19:07:41.796,1789337261.7960038,-58
2026-09-13 19:07:41.803,1789337261.8036962,-55
2026-09-13 19:07:41.811,1789337261.8113883,-46
2026-09-13 19:07:41.819,1789337261.8190806,-41
2026-09-13 19:07:41.826,1789337261.826773,-43
2026-09-13 19:07:41.834,1789337261.8344653,-48
2026-09-13 19:07:41.842,1789337261.8421576,-50
2026-09-13 19:07:41.849,1789337261.84985,-55
2026-09-13 19:07:41.857,1789337261.8575423,-53
2026-09-13 19:07:41.865,1789337261.8652346,-50
2026-09-13 19:07:41.872,1789337261.8729267,-58
2026-09-13 19:07:41.880,1789337261.880619,-70
2026-09-13 19:07:41.888,1789337261.8883114,-87
2026-09-13 19:07:41.896,1789337261.8960037,-109
2026-09-13 19:07:41.903,1789337261.903696,-118
2026-09-13 19:07:41.911,1789337261.9113884,-123
2026-09-13 19:07:41.919,1789337261.9190807,-133
2026-09-13 19:07:41.926,1789337261.926773,-133
2026-09-13 19:07:41.934,1789337261.9344652,-128
2026-09-13 19:07:41.942,1789337261.9421575,-126
2026-09-13 19:07:41.949,1789337261.9498498,-123
2026-09-13 19:07:41.957,1789337261.9575422,-116
2026-09-13 19:07:41.965,1789337261.9652345,-106
2026-09-13 19:07:41.972,1789337261.9729269,-101
2026-09-13 19:07:41.980,1789337261.9806192,-99
2026-09-13 19:07:41.988,1789337261.9883115,-97
2026-09-13 19:07:41.996,1789337261.9960036,-94
2026-09-13 19:07:42.003,1789337262.003696,-89
2026-09-13 19:07:42.011,1789337262.0113883,-89
2026-09-13 19:07:42.019,1789337262.0190806,-94
2026-09-13 19:07:42.026,1789337262.026773,-101
2026-09-13 19:07:42.034,1789337262.0344653,-99
2026-09-13 19:07:42.042,1789337262.0421576,-87
2026-09-13 19:07:42.049,1789337262.04985,-72
2026-09-13 19:07:42.057,1789337262.0575423,-58
2026-09-13 19:07:42.065,1789337262.0652344,-36
2026-09-13 19:07:42.072,1789337262.0729268,-24
2026-09-13 19:07:42.080,1789337262.080619,-33
2026-09-13 19:07:42.087,1789337262.0877192,-53
2026-09-13 19:07:42.095,1789337262.0954115,-72
2026-09-13 19:07:42.103,1789337262.1031039,-87
2026-09-13 19:07:42.110,1789337262.1107962,-92
2026-09-13 19:07:42.118,1789337262.1184886,-94
2026-09-13 19:07:42.126,1789337262.1261806,-92
2026-09-13 19:07:42.133,1789337262.133873,-84
2026-09-13 19:07:42.141,1789337262.1415653,-82
2026-09-13 19:07:42.149,1789337262.1492577,-97
2026-09-13 19:07:42.156,1789337262.15695,-111
2026-09-13 19:07:42.164,1789337262.1646423,-84
2026-09-13 19:07:42.172,1789337262.1723347,21
2026-09-13 19:07:42.180,1789337262.180027,237
2026-09-13 19:07:42.187,1789337262.187719,545
2026-09-13 19:07:42.195,1789337262.1954114,528
2026-09-13 19:07:42.203,1789337262.2031038,-63
2026-09-13 19:07:42.210,1789337262.210796,-424
2026-09-13 19:07:42.218,1789337262.2184885,-172
2026-09-13 19:07:42.226,1789337262.2261808,-21
2026-09-13 19:07:42.233,1789337262.2338731,-130
2026-09-13 19:07:42.241,1789337262.2415655,-118
2026-09-13 19:07:42.249,1789337262.2492576,-65
2026-09-13 19:07:42.256,1789337262.25695,-99
2026-09-13 19:07:42.264,1789337262.2646422,-104
2026-09-13 19:07:42.272,1789337262.2723346,-67
2026-09-13 19:07:42.280,1789337262.280027,-67
2026-09-13 19:07:42.287,1789337262.2877192,-77
2026-09-13 19:07:42.295,1789337262.2954116,-58
2026-09-13 19:07:42.303,1789337262.303104,-48
2026-09-13 19:07:42.310,1789337262.310796,-48
2026-09-13 19:07:42.318,1789337262.3184884,-38
2026-09-13 19:07:42.326,1789337262.3261807,-29
2026-09-13 19:07:42.333,1789337262.333873,-29
2026-09-13 19:07:42.341,1789337262.3415654,-16
2026-09-13 19:07:42.349,1789337262.3492577,-4
2026-09-13 19:07:42.356,1789337262.35695,0
2026-09-13 19:07:42.364,1789337262.3646424,9
2026-09-13 19:07:42.372,1789337262.3723345,14
2026-09-13 19:07:42.380,1789337262.3800268,14
2026-09-13 19:07:42.387,1789337262.3877192,16
2026-09-13 19:07:42.395,1789337262.3954115,14
2026-09-13 19:07:42.403,1789337262.4031038,12
2026-09-13 19:07:42.410,1789337262.4107962,19
2026-09-13 19:07:42.418,1789337262.4184885,21
2026-09-13 19:07:42.426,1789337262.4261808,7
2026-09-13 19:07:42.433,1789337262.433873,-16
2026-09-13 19:07:42.441,1789337262.4415653,-43
2026-09-13 19:07:42.449,1789337262.4492576,-63
2026-09-13 19:07:42.456,1789337262.45695,-77
2026-09-13 19:07:42.464,1789337262.4646423,-87
2026-09-13 19:07:42.472,1789337262.4723346,-94
2026-09-13 19:07:42.480,1789337262.480027,-94
2026-09-13 19:07:42.487,1789337262.4877193,-89
2026-09-13 19:07:42.495,1789337262.4954114,-84
2026-09-13 19:07:42.503,1789337262.5031037,-82
2026-09-13 19:07:42.510,1789337262.510796,-77
2026-09-13 19:07:42.518,1789337262.5184884,-70
2026-09-13 19:07:42.526,1789337262.5261807,-67
2026-09-13 19:07:42.533,1789337262.533873,-65
2026-09-13 19:07:42.541,1789337262.5415654,-60
2026-09-13 19:07:42.549,1789337262.5492578,-55
2026-09-13 19:07:42.556,1789337262.5569499,-58
2026-09-13 19:07:42.564,1789337262.5646422,-55
2026-09-13 19:07:42.572,1789337262.5723345,-55
2026-09-13 19:07:42.580,1789337262.5800269,-65
2026-09-13 19:07:42.587,1789337262.5877192,-67
2026-09-13 19:07:42.595,1789337262.5954115,-55
2026-09-13 19:07:42.603,1789337262.6031039,-43
2026-09-13 19:07:42.610,1789337262.6107962,-31
2026-09-13 19:07:42.618,1789337262.6184886,-9
2026-09-13 19:07:42.626,1789337262.6261806,12
2026-09-13 19:07:42.633,1789337262.633873,12
2026-09-13 19:07:42.641,1789337262.6415653,-2
2026-09-13 19:07:42.648,1789337262.6486654,-14
2026-09-13 19:07:42.656,1789337262.6563578,-26
2026-09-13 19:07:42.664,1789337262.66405,-38
2026-09-13 19:07:42.671,1789337262.6717424,-48
2026-09-13 19:07:42.679,1789337262.6794348,-53
2026-09-13 19:07:42.687,1789337262.6871269,-53
2026-09-13 19:07:42.694,1789337262.6948192,-50
2026-09-13 19:07:42.702,1789337262.7025115,-46
2026-09-13 19:07:42.710,1789337262.710204,-43
2026-09-13 19:07:42.717,1789337262.7178962,-46
2026-09-13 19:07:42.725,1789337262.7255886,9
2026-09-13 19:07:42.733,1789337262.733281,174
2026-09-13 19:07:42.740,1789337262.7409732,441
2026-09-13 19:07:42.748,1789337262.7486653,662
2026-09-13 19:07:42.756,1789337262.7563577,380
2026-09-13 19:07:42.764,1789337262.76405,-232
2026-09-13 19:07:42.771,1789337262.7717423,-317
2026-09-13 19:07:42.779,1789337262.7794347,-16
2026-09-13 19:07:42.787,1789337262.787127,-2
2026-09-13 19:07:42.794,1789337262.7948194,-87
2026-09-13 19:07:42.802,1789337262.8025117,-36
2026-09-13 19:07:42.810,1789337262.8102038,-19
2026-09-13 19:07:42.817,1789337262.8178961,-46
2026-09-13 19:07:42.825,1789337262.8255885,-31
2026-09-13 19:07:42.833,1789337262.8332808,-14
2026-09-13 19:07:42.840,1789337262.8409731,-12
2026-09-13 19:07:42.848,1789337262.8486655,-2
2026-09-13 19:07:42.856,1789337262.8563578,4
2026-09-13 19:07:42.864,1789337262.8640501,7
2026-09-13 19:07:42.871,1789337262.8717422,16
2026-09-13 19:07:42.879,1789337262.8794346,33
2026-09-13 19:07:42.887,1789337262.887127,43
2026-09-13 19:07:42.894,1789337262.8948193,53
2026-09-13 19:07:42.902,1789337262.9025116,60
2026-09-13 19:07:42.910,1789337262.910204,67
2026-09-13 19:07:42.917,1789337262.9178963,75
2026-09-13 19:07:42.925,1789337262.9255886,84
2026-09-13 19:07:42.933,1789337262.9332807,97
2026-09-13 19:07:42.940,1789337262.940973,97
2026-09-13 19:07:42.948,1789337262.9486654,89
2026-09-13 19:07:42.956,1789337262.9563577,89
2026-09-13 19:07:42.964,1789337262.96405,99
2026-09-13 19:07:42.971,1789337262.9717424,99
2026-09-13 19:07:42.979,1789337262.9794347,92
2026-09-13 19:07:42.987,1789337262.987127,70
2026-09-13 19:07:42.994,1789337262.9948192,31
2026-09-13 19:07:43.002,1789337263.0025115,-2
2026-09-13 19:07:43.010,1789337263.0102038,-29
2026-09-13 19:07:43.017,1789337263.0178962,-48
2026-09-13 19:07:43.025,1789337263.0255885,-55
2026-09-13 19:07:43.033,1789337263.0332808,-60
2026-09-13 19:07:43.040,1789337263.0409732,-67
2026-09-13 19:07:43.048,1789337263.0486655,-63
2026-09-13 19:07:43.056,1789337263.0563576,-50
2026-09-13 19:07:43.064,1789337263.06405,-50
2026-09-13 19:07:43.071,1789337263.0717423,-53
2026-09-13 19:07:43.079,1789337263.0794346,-48
2026-09-13 19:07:43.087,1789337263.087127,-41
2026-09-13 19:07:43.094,1789337263.0948193,-36
2026-09-13 19:07:43.102,1789337263.1025116,-33
2026-09-13 19:07:43.110,1789337263.110204,-29
2026-09-13 19:07:43.117,1789337263.117896,-16
2026-09-13 19:07:43.125,1789337263.1255884,-16
2026-09-13 19:07:43.133,1789337263.1332808,-36
2026-09-13 19:07:43.140,1789337263.140973,-43
2026-09-13 19:07:43.148,1789337263.1486654,-31
2026-09-13 19:07:43.156,1789337263.1563578,-29
2026-09-13 19:07:43.164,1789337263.16405,-36
2026-09-13 19:07:43.171,1789337263.1717424,-12
2026-09-13 19:07:43.179,1789337263.1794348,26
2026-09-13 19:07:43.187,1789337263.1871269,36
2026-09-13 19:07:43.194,1789337263.1948192,24
2026-09-13 19:07:43.202,1789337263.2025115,9
2026-09-13 19:07:43.209,1789337263.2096117,-14
2026-09-13 19:07:43.217,1789337263.217304,-43
2026-09-13 19:07:43.224,1789337263.2249963,-43
2026-09-13 19:07:43.232,1789337263.2326887,-33
2026-09-13 19:07:43.240,1789337263.240381,-31
2026-09-13 19:07:43.248,1789337263.248073,-31
2026-09-13 19:07:43.255,1789337263.2557654,-33
2026-09-13 19:07:43.263,1789337263.2634578,-36
2026-09-13 19:07:43.271,1789337263.27115,-38
2026-09-13 19:07:43.278,1789337263.2788424,-12
2026-09-13 19:07:43.286,1789337263.2865348,123
2026-09-13 19:07:43.294,1789337263.2942271,407
2026-09-13 19:07:43.301,1789337263.3019195,712
2026-09-13 19:07:43.309,1789337263.3096116,584
2026-09-13 19:07:43.317,1789337263.317304,-116
2026-09-13 19:07:43.324,1789337263.3249962,-480
2026-09-13 19:07:43.332,1789337263.3326886,-152
2026-09-13 19:07:43.340,1789337263.340381,24
2026-09-13 19:07:43.348,1789337263.3480732,-92
2026-09-13 19:07:43.355,1789337263.3557656,-63
2026-09-13 19:07:43.363,1789337263.363458,0
2026-09-13 19:07:43.371,1789337263.37115,-36
2026-09-13 19:07:43.378,1789337263.3788424,-33
2026-09-13 19:07:43.386,1789337263.3865347,-4
2026-09-13 19:07:43.394,1789337263.394227,-14
2026-09-13 19:07:43.401,1789337263.4019194,-14
2026-09-13 19:07:43.409,1789337263.4096117,16
2026-09-13 19:07:43.417,1789337263.417304,19
2026-09-13 19:07:43.424,1789337263.4249964,14
2026-09-13 19:07:43.432,1789337263.4326885,41
2026-09-13 19:07:43.440,1789337263.4403808,46
2026-09-13 19:07:43.448,1789337263.4480731,41
2026-09-13 19:07:43.455,1789337263.4557655,63
2026-09-13 19:07:43.463,1789337263.4634578,84
2026-09-13 19:07:43.471,1789337263.4711502,97
2026-09-13 19:07:43.478,1789337263.4788425,121
2026-09-13 19:07:43.486,1789337263.4865348,123
2026-09-13 19:07:43.494,1789337263.494227,116
2026-09-13 19:07:43.501,1789337263.5019193,130
2026-09-13 19:07:43.509,1789337263.5096116,138
2026-09-13 19:07:43.517,1789337263.517304,121
2026-09-13 19:07:43.524,1789337263.5249963,118
2026-09-13 19:07:43.532,1789337263.5326886,123
2026-09-13 19:07:43.540,1789337263.540381,101
2026-09-13 19:07:43.548,1789337263.5480733,48
2026-09-13 19:07:43.555,1789337263.5557654,-4
2026-09-13 19:07:43.563,1789337263.5634577,-36
2026-09-13 19:07:43.571,1789337263.57115,-48
2026-09-13 19:07:43.578,1789337263.5788424,-75
2026-09-13 19:07:43.586,1789337263.5865347,-104
2026-09-13 19:07:43.594,1789337263.594227,-104
2026-09-13 19:07:43.601,1789337263.6019194,-89
2026-09-13 19:07:43.609,1789337263.6096117,-80
2026-09-13 19:07:43.617,1789337263.6173038,-77
2026-09-13 19:07:43.624,1789337263.6249962,-84
2026-09-13 19:07:43.632,1789337263.6326885,-77
2026-09-13 19:07:43.640,1789337263.6403809,-55
2026-09-13 19:07:43.648,1789337263.6480732,-55
2026-09-13 19:07:43.655,1789337263.6557655,-55
2026-09-13 19:07:43.663,1789337263.6634579,-43
2026-09-13 19:07:43.671,1789337263.6711502,-36
2026-09-13 19:07:43.678,1789337263.6788423,-38
2026-09-13 19:07:43.686,1789337263.6865346,-48
2026-09-13 19:07:43.694,1789337263.694227,-53
2026-09-13 19:07:43.701,1789337263.7019193,-46
2026-09-13 19:07:43.709,1789337263.7096117,-41
2026-09-13 19:07:43.717,1789337263.717304,-29
2026-09-13 19:07:43.724,1789337263.7249963,-2
2026-09-13 19:07:43.732,1789337263.7326887,16
2026-09-13 19:07:43.740,1789337263.740381,9
2026-09-13 19:07:43.748,1789337263.748073,-14
2026-09-13 19:07:43.755,1789337263.7557654,-36
2026-09-13 19:07:43.763,1789337263.7634578,-48
2026-09-13 19:07:43.770,1789337263.7705631,-50
2026-09-13 19:07:43.778,1789337263.7782555,-50
2026-09-13 19:07:43.785,1789337263.7859478,-53
2026-09-13 19:07:43.793,1789337263.7936401,-50
2026-09-13 19:07:43.801,1789337263.8013325,-48
2026-09-13 19:07:43.809,1789337263.8090246,-48
2026-09-13 19:07:43.816,1789337263.816717,-55
2026-09-13 19:07:43.824,1789337263.8244092,-38
2026-09-13 19:07:43.832,1789337263.8321016,87
2026-09-13 19:07:43.839,1789337263.839794,358
2026-09-13 19:07:43.847,1789337263.8474863,666
2026-09-13 19:07:43.855,1789337263.8551786,611
2026-09-13 19:07:43.862,1789337263.862871,-41
2026-09-13 19:07:43.870,1789337263.870563,-499
2026-09-13 19:07:43.878,1789337263.8782554,-223
2026-09-13 19:07:43.885,1789337263.8859477,21
2026-09-13 19:07:43.893,1789337263.89364,-89
2026-09-13 19:07:43.901,1789337263.9013324,-99
2026-09-13 19:07:43.909,1789337263.9090247,-21
2026-09-13 19:07:43.916,1789337263.916717,-53
2026-09-13 19:07:43.924,1789337263.9244094,-70
2026-09-13 19:07:43.932,1789337263.9321015,-36
2026-09-13 19:07:43.939,1789337263.9397938,-33
2026-09-13 19:07:43.947,1789337263.9474862,-38
2026-09-13 19:07:43.955,1789337263.9551785,-24
2026-09-13 19:07:43.962,1789337263.9628708,-14
2026-09-13 19:07:43.970,1789337263.9705632,-9
2026-09-13 19:07:43.978,1789337263.9782555,0
2026-09-13 19:07:43.985,1789337263.9859478,7
2026-09-13 19:07:43.993,1789337263.99364,12
2026-09-13 19:07:44.001,1789337264.0013323,21
2026-09-13 19:07:44.009,1789337264.0090246,33
2026-09-13 19:07:44.016,1789337264.016717,46
2026-09-13 19:07:44.024,1789337264.0244093,58
2026-09-13 19:07:44.032,1789337264.0321016,67
2026-09-13 19:07:44.039,1789337264.039794,72
2026-09-13 19:07:44.047,1789337264.0474863,72
2026-09-13 19:07:44.055,1789337264.0551784,72
2026-09-13 19:07:44.062,1789337264.0628707,72
2026-09-13 19:07:44.070,1789337264.070563,70
2026-09-13 19:07:44.078,1789337264.0782554,60
2026-09-13 19:07:44.085,1789337264.0859478,41
2026-09-13 19:07:44.093,1789337264.09364,7
2026-09-13 19:07:44.101,1789337264.1013324,-29
2026-09-13 19:07:44.109,1789337264.1090248,-58
2026-09-13 19:07:44.116,1789337264.1167169,-82
2026-09-13 19:07:44.124,1789337264.1244092,-97
2026-09-13 19:07:44.132,1789337264.1321015,-104
2026-09-13 19:07:44.139,1789337264.1397939,-109
2026-09-13 19:07:44.147,1789337264.1474862,-106
2026-09-13 19:07:44.155,1789337264.1551785,-104
2026-09-13 19:07:44.162,1789337264.162871,-99
2026-09-13 19:07:44.170,1789337264.1705632,-92
2026-09-13 19:07:44.178,1789337264.1782553,-82
2026-09-13 19:07:44.185,1789337264.1859477,-75
2026-09-13 19:07:44.193,1789337264.19364,-72
2026-09-13 19:07:44.201,1789337264.2013323,-67
2026-09-13 19:07:44.209,1789337264.2090247,-63
2026-09-13 19:07:44.216,1789337264.216717,-63
2026-09-13 19:07:44.224,1789337264.2244093,-70
2026-09-13 19:07:44.232,1789337264.2321017,-75
2026-09-13 19:07:44.239,1789337264.2397938,-67
2026-09-13 19:07:44.247,1789337264.247486,-58
2026-09-13 19:07:44.255,1789337264.2551785,-53
2026-09-13 19:07:44.262,1789337264.2628708,-36
2026-09-13 19:07:44.270,1789337264.2705631,-9
2026-09-13 19:07:44.278,1789337264.2782555,-2
2026-09-13 19:07:44.285,1789337264.2859478,-16
2026-09-13 19:07:44.293,1789337264.2936401,-36
2026-09-13 19:07:44.301,1789337264.3013325,-55
2026-09-13 19:07:44.309,1789337264.3090246,-65
2026-09-13 19:07:44.316,1789337264.316717,-70
2026-09-13 19:07:44.324,1789337264.3244092,-67
2026-09-13 19:07:44.331,1789337264.3315043,-65
2026-09-13 19:07:44.339,1789337264.3391967,-65
2026-09-13 19:07:44.346,1789337264.346889,-65
2026-09-13 19:07:44.354,1789337264.3545814,-72
2026-09-13 19:07:44.362,1789337264.3622737,-82
2026-09-13 19:07:44.369,1789337264.3699658,-29
2026-09-13 19:07:44.377,1789337264.3776581,145
2026-09-13 19:07:44.385,1789337264.3853505,465
2026-09-13 19:07:44.393,1789337264.3930428,759
2026-09-13 19:07:44.400,1789337264.4007351,489
2026-09-13 19:07:44.408,1789337264.4084275,-227
2026-09-13 19:07:44.416,1789337264.4161198,-388
2026-09-13 19:07:44.423,1789337264.4238122,-43
2026-09-13 19:07:44.431,1789337264.4315042,-21
2026-09-13 19:07:44.439,1789337264.4391966,-155
2026-09-13 19:07:44.446,1789337264.446889,-94
2026-09-13 19:07:44.454,1789337264.4545813,-58
2026-09-13 19:07:44.462,1789337264.4622736,-104
2026-09-13 19:07:44.469,1789337264.469966,-89
2026-09-13 19:07:44.477,1789337264.4776583,-60
2026-09-13 19:07:44.485,1789337264.4853506,-65
2026-09-13 19:07:44.493,1789337264.4930427,-60
2026-09-13 19:07:44.500,1789337264.500735,-43
2026-09-13 19:07:44.508,1789337264.5084274,-38
2026-09-13 19:07:44.516,1789337264.5161197,-36
2026-09-13 19:07:44.523,1789337264.523812,-26
2026-09-13 19:07:44.531,1789337264.5315044,-19
2026-09-13 19:07:44.539,1789337264.5391967,-19
2026-09-13 19:07:44.546,1789337264.546889,-9
2026-09-13 19:07:44.554,1789337264.5545812,0
2026-09-13 19:07:44.562,1789337264.5622735,4
2026-09-13 19:07:44.569,1789337264.5699658,4
2026-09-13 19:07:44.577,1789337264.5776582,4
2026-09-13 19:07:44.585,1789337264.5853505,2
2026-09-13 19:07:44.593,1789337264.5930429,-4
2026-09-13 19:07:44.600,1789337264.6007352,-12
2026-09-13 19:07:44.608,1789337264.6084275,-12
2026-09-13 19:07:44.616,1789337264.6161196,-12
2026-09-13 19:07:44.623,1789337264.623812,-14
2026-09-13 19:07:44.631,1789337264.6315043,-29
2026-09-13 19:07:44.639,1789337264.6391966,-48
2026-09-13 19:07:44.646,1789337264.646889,-58
2026-09-13 19:07:44.654,1789337264.6545813,-70
2026-09-13 19:07:44.662,1789337264.6622736,-82
2026-09-13 19:07:44.669,1789337264.669966,-87
2026-09-13 19:07:44.677,1789337264.677658,-87
2026-09-13 19:07:44.685,1789337264.6853504,-87
2026-09-13 19:07:44.693,1789337264.6930428,-82
2026-09-13 19:07:44.700,1789337264.700735,-72
2026-09-13 19:07:44.708,1789337264.7084274,-67
2026-09-13 19:07:44.716,1789337264.7161198,-65
2026-09-13 19:07:44.723,1789337264.723812,-58
2026-09-13 19:07:44.731,1789337264.7315044,-53
2026-09-13 19:07:44.739,1789337264.7391965,-50
2026-09-13 19:07:44.746,1789337264.7468889,-48
2026-09-13 19:07:44.754,1789337264.7545812,-48
2026-09-13 19:07:44.762,1789337264.7622736,-50
2026-09-13 19:07:44.769,1789337264.769966,-58
2026-09-13 19:07:44.777,1789337264.7776582,-63
2026-09-13 19:07:44.785,1789337264.7853506,-58
2026-09-13 19:07:44.793,1789337264.793043,-46
2026-09-13 19:07:44.800,1789337264.800735,-38
2026-09-13 19:07:44.808,1789337264.8084273,-24
2026-09-13 19:07:44.816,1789337264.8161197,-2
2026-09-13 19:07:44.823,1789337264.823812,0
2026-09-13 19:07:44.831,1789337264.8315043,-14
2026-09-13 19:07:44.839,1789337264.8391967,-33
2026-09-13 19:07:44.846,1789337264.846889,-50
2026-09-13 19:07:44.854,1789337264.8545814,-67
2026-09-13 19:07:44.862,1789337264.8622737,-70
2026-09-13 19:07:44.869,1789337264.8699658,-70
2026-09-13 19:07:44.877,1789337264.8776581,-70
2026-09-13 19:07:44.885,1789337264.8853505,-67
2026-09-13 19:07:44.892,1789337264.892476,-67
2026-09-13 19:07:44.900,1789337264.9001684,-80
2026-09-13 19:07:44.907,1789337264.9078608,-89
2026-09-13 19:07:44.915,1789337264.915553,-36
2026-09-13 19:07:44.923,1789337264.9232454,121
2026-09-13 19:07:44.930,1789337264.9309375,407
2026-09-13 19:07:44.938,1789337264.9386299,698
2026-09-13 19:07:44.946,1789337264.9463222,460
2026-09-13 19:07:44.954,1789337264.9540145,-218
2026-09-13 19:07:44.961,1789337264.9617069,-371
2026-09-13 19:07:44.969,1789337264.9693992,-48
2026-09-13 19:07:44.977,1789337264.9770916,-26
2026-09-13 19:07:44.984,1789337264.984784,-147
2026-09-13 19:07:44.992,1789337264.992476,-92
2026-09-13 19:07:45.000,1789337265.0001683,-58
2026-09-13 19:07:45.007,1789337265.0078607,-101
2026-09-13 19:07:45.015,1789337265.015553,-87
2026-09-13 19:07:45.023,1789337265.0232453,-58
2026-09-13 19:07:45.030,1789337265.0309377,-63
2026-09-13 19:07:45.038,1789337265.03863,-63
2026-09-13 19:07:45.046,1789337265.0463223,-46
2026-09-13 19:07:45.054,1789337265.0540144,-38
2026-09-13 19:07:45.061,1789337265.0617068,-36
2026-09-13 19:07:45.069,1789337265.069399,-26
2026-09-13 19:07:45.077,1789337265.0770915,-19
2026-09-13 19:07:45.084,1789337265.0847838,-14
2026-09-13 19:07:45.092,1789337265.0924761,-7
2026-09-13 19:07:45.100,1789337265.1001685,2
2026-09-13 19:07:45.107,1789337265.1078608,7
2026-09-13 19:07:45.115,1789337265.115553,12
2026-09-13 19:07:45.123,1789337265.1232452,14
2026-09-13 19:07:45.130,1789337265.1309376,16
2026-09-13 19:07:45.138,1789337265.13863,14
2026-09-13 19:07:45.146,1789337265.1463223,12
2026-09-13 19:07:45.154,1789337265.1540146,12
2026-09-13 19:07:45.161,1789337265.161707,9
2026-09-13 19:07:45.169,1789337265.1693993,0
2026-09-13 19:07:45.177,1789337265.1770914,-16
2026-09-13 19:07:45.184,1789337265.1847837,-36
2026-09-13 19:07:45.192,1789337265.192476,-53
2026-09-13 19:07:45.200,1789337265.2001684,-75
2026-09-13 19:07:45.207,1789337265.2078607,-87
2026-09-13 19:07:45.215,1789337265.215553,-94
2026-09-13 19:07:45.223,1789337265.2232454,-94
2026-09-13 19:07:45.230,1789337265.2309377,-92
2026-09-13 19:07:45.238,1789337265.2386298,-92
2026-09-13 19:07:45.246,1789337265.2463222,-87
2026-09-13 19:07:45.254,1789337265.2540145,-77
2026-09-13 19:07:45.261,1789337265.2617068,-65
2026-09-13 19:07:45.269,1789337265.2693992,-60
2026-09-13 19:07:45.277,1789337265.2770915,-58
2026-09-13 19:07:45.284,1789337265.2847838,-55
2026-09-13 19:07:45.292,1789337265.2924762,-50
2026-09-13 19:07:45.300,1789337265.3001683,-46
2026-09-13 19:07:45.307,1789337265.3078606,-48
2026-09-13 19:07:45.315,1789337265.315553,-50
2026-09-13 19:07:45.323,1789337265.3232453,-53
2026-09-13 19:07:45.330,1789337265.3309376,-55
2026-09-13 19:07:45.338,1789337265.33863,-53
2026-09-13 19:07:45.346,1789337265.3463223,-46
2026-09-13 19:07:45.354,1789337265.3540146,-38
2026-09-13 19:07:45.361,1789337265.3617067,-24
2026-09-13 19:07:45.369,1789337265.369399,0
2026-09-13 19:07:45.377,1789337265.3770914,16
2026-09-13 19:07:45.384,1789337265.3847837,16
2026-09-13 19:07:45.392,1789337265.392476,2
2026-09-13 19:07:45.400,1789337265.4001684,-21
2026-09-13 19:07:45.407,1789337265.4078608,-41
2026-09-13 19:07:45.415,1789337265.415553,-50
2026-09-13 19:07:45.423,1789337265.4232454,-55
2026-09-13 19:07:45.430,1789337265.4309375,-58
2026-09-13 19:07:45.438,1789337265.4386299,-58
2026-09-13 19:07:45.446,1789337265.4463222,-58
2026-09-13 19:07:45.453,1789337265.4534273,-60
2026-09-13 19:07:45.461,1789337265.4611197,-67
2026-09-13 19:07:45.468,1789337265.468812,-70
2026-09-13 19:07:45.476,1789337265.4765043,-7
2026-09-13 19:07:45.484,1789337265.4841967,152
2026-09-13 19:07:45.491,1789337265.4918888,426
2026-09-13 19:07:45.499,1789337265.499581,637
2026-09-13 19:07:45.507,1789337265.5072734,317
2026-09-13 19:07:45.514,1789337265.5149658,-266
2026-09-13 19:07:45.522,1789337265.522658,-298
2026-09-13 19:07:45.530,1789337265.5303504,-31
2026-09-13 19:07:45.538,1789337265.5380428,-48
2026-09-13 19:07:45.545,1789337265.5457351,-118
2026-09-13 19:07:45.553,1789337265.5534272,-63
2026-09-13 19:07:45.561,1789337265.5611196,-58
2026-09-13 19:07:45.568,1789337265.568812,-92
2026-09-13 19:07:45.576,1789337265.5765042,-70
2026-09-13 19:07:45.584,1789337265.5841966,-48
2026-09-13 19:07:45.591,1789337265.591889,-50
2026-09-13 19:07:45.599,1789337265.5995812,-43
2026-09-13 19:07:45.607,1789337265.6072736,-31
2026-09-13 19:07:45.614,1789337265.6149657,-24
2026-09-13 19:07:45.622,1789337265.622658,-14
2026-09-13 19:07:45.630,1789337265.6303504,-7
2026-09-13 19:07:45.638,1789337265.6380427,-2
2026-09-13 19:07:45.645,1789337265.645735,7
2026-09-13 19:07:45.653,1789337265.6534274,24
2026-09-13 19:07:45.661,1789337265.6611197,36
2026-09-13 19:07:45.668,1789337265.668812,36
2026-09-13 19:07:45.676,1789337265.6765041,31
2026-09-13 19:07:45.684,1789337265.6841965,41
2026-09-13 19:07:45.691,1789337265.6918888,50
2026-09-13 19:07:45.699,1789337265.6995811,46
2026-09-13 19:07:45.707,1789337265.7072735,43
2026-09-13 19:07:45.714,1789337265.7149658,48
2026-09-13 19:07:45.722,1789337265.7226582,43
2026-09-13 19:07:45.730,1789337265.7303505,33
2026-09-13 19:07:45.738,1789337265.7380426,16
2026-09-13 19:07:45.745,1789337265.745735,-12
2026-09-13 19:07:45.753,1789337265.7534273,-43
2026-09-13 19:07:45.761,1789337265.7611196,-60
2026-09-13 19:07:45.768,1789337265.768812,-72
2026-09-13 19:07:45.776,1789337265.7765043,-94
2026-09-13 19:07:45.784,1789337265.7841966,-104
2026-09-13 19:07:45.791,1789337265.791889,-94
2026-09-13 19:07:45.799,1789337265.799581,-80
2026-09-13 19:07:45.807,1789337265.8072734,-75
2026-09-13 19:07:45.814,1789337265.8149657,-77
2026-09-13 19:07:45.822,1789337265.822658,-67
2026-09-13 19:07:45.830,1789337265.8303504,-58
2026-09-13 19:07:45.838,1789337265.8380427,-63
2026-09-13 19:07:45.845,1789337265.845735,-70
2026-09-13 19:07:45.853,1789337265.8534274,-70
2026-09-13 19:07:45.861,1789337265.8611195,-60
2026-09-13 19:07:45.868,1789337265.8688118,-50
2026-09-13 19:07:45.876,1789337265.8765042,-50
2026-09-13 19:07:45.884,1789337265.8841965,-58
2026-09-13 19:07:45.891,1789337265.8918889,-58
2026-09-13 19:07:45.899,1789337265.8995812,-63
2026-09-13 19:07:45.907,1789337265.9072735,-72
2026-09-13 19:07:45.914,1789337265.9149659,-77
2026-09-13 19:07:45.922,1789337265.922658,-65
2026-09-13 19:07:45.930,1789337265.9303503,-50
2026-09-13 19:07:45.938,1789337265.9380426,-36
2026-09-13 19:07:45.945,1789337265.945735,-7
2026-09-13 19:07:45.953,1789337265.9534273,12
2026-09-13 19:07:45.961,1789337265.9611197,0
2026-09-13 19:07:45.968,1789337265.968812,-29
2026-09-13 19:07:45.976,1789337265.9765043,-46
2026-09-13 19:07:45.984,1789337265.9841967,-58
2026-09-13 19:07:45.991,1789337265.9918888,-67
2026-09-13 19:07:45.999,1789337265.999581,-75
2026-09-13 19:07:46.007,1789337266.0072734,-75
2026-09-13 19:07:46.014,1789337266.0143735,-63
2026-09-13 19:07:46.022,1789337266.0220659,-58
2026-09-13 19:07:46.029,1789337266.0297582,-70
2026-09-13 19:07:46.037,1789337266.0374506,-82
2026-09-13 19:07:46.045,1789337266.045143,-19
2026-09-13 19:07:46.052,1789337266.052835,181
2026-09-13 19:07:46.060,1789337266.0605273,492
2026-09-13 19:07:46.068,1789337266.0682197,734
2026-09-13 19:07:46.075,1789337266.075912,438
2026-09-13 19:07:46.083,1789337266.0836043,-278
2026-09-13 19:07:46.091,1789337266.0912967,-434
2026-09-13 19:07:46.098,1789337266.098989,-82
2026-09-13 19:07:46.106,1789337266.1066813,-36
2026-09-13 19:07:46.114,1789337266.1143734,-140
2026-09-13 19:07:46.122,1789337266.1220658,-80
2026-09-13 19:07:46.129,1789337266.1297581,-50
2026-09-13 19:07:46.137,1789337266.1374505,-89
2026-09-13 19:07:46.145,1789337266.1451428,-72
2026-09-13 19:07:46.152,1789337266.1528351,-48
2026-09-13 19:07:46.160,1789337266.1605275,-50
2026-09-13 19:07:46.168,1789337266.1682198,-41
2026-09-13 19:07:46.175,1789337266.175912,-24
2026-09-13 19:07:46.183,1789337266.1836042,-19
2026-09-13 19:07:46.191,1789337266.1912966,-7
2026-09-13 19:07:46.198,1789337266.198989,2
2026-09-13 19:07:46.206,1789337266.2066813,-2
2026-09-13 19:07:46.214,1789337266.2143736,7
2026-09-13 19:07:46.222,1789337266.222066,41
2026-09-13 19:07:46.229,1789337266.2297583,55
2026-09-13 19:07:46.237,1789337266.2374504,53
2026-09-13 19:07:46.245,1789337266.2451427,63
2026-09-13 19:07:46.252,1789337266.252835,75
2026-09-13 19:07:46.260,1789337266.2605274,80
2026-09-13 19:07:46.268,1789337266.2682197,89
2026-09-13 19:07:46.275,1789337266.275912,94
2026-09-13 19:07:46.283,1789337266.2836044,94
2026-09-13 19:07:46.291,1789337266.2912967,94
2026-09-13 19:07:46.298,1789337266.2989888,77
2026-09-13 19:07:46.306,1789337266.3066812,43
2026-09-13 19:07:46.314,1789337266.3143735,0
2026-09-13 19:07:46.322,1789337266.3220658,-46
2026-09-13 19:07:46.329,1789337266.3297582,-80
2026-09-13 19:07:46.337,1789337266.3374505,-87
2026-09-13 19:07:46.345,1789337266.3451428,-89
2026-09-13 19:07:46.352,1789337266.3528352,-111
2026-09-13 19:07:46.360,1789337266.3605273,-133
2026-09-13 19:07:46.368,1789337266.3682196,-126
2026-09-13 19:07:46.375,1789337266.375912,-111
2026-09-13 19:07:46.383,1789337266.3836043,-109
2026-09-13 19:07:46.391,1789337266.3912966,-104
2026-09-13 19:07:46.398,1789337266.398989,-92
2026-09-13 19:07:46.406,1789337266.4066813,-75
2026-09-13 19:07:46.414,1789337266.4143736,-70
2026-09-13 19:07:46.422,1789337266.4220657,-72
2026-09-13 19:07:46.429,1789337266.429758,-70
2026-09-13 19:07:46.437,1789337266.4374504,-53
2026-09-13 19:07:46.445,1789337266.4451427,-50
2026-09-13 19:07:46.452,1789337266.452835,-70
2026-09-13 19:07:46.460,1789337266.4605274,-84
2026-09-13 19:07:46.468,1789337266.4682198,-80
2026-09-13 19:07:46.475,1789337266.475912,-72
2026-09-13 19:07:46.483,1789337266.4836042,-65
2026-09-13 19:07:46.491,1789337266.4912965,-53
2026-09-13 19:07:46.498,1789337266.4989889,-41
2026-09-13 19:07:46.506,1789337266.5066812,-19
2026-09-13 19:07:46.514,1789337266.5143735,-12
2026-09-13 19:07:46.522,1789337266.5220659,-31
2026-09-13 19:07:46.529,1789337266.5297582,-41
2026-09-13 19:07:46.537,1789337266.5374506,-48
2026-09-13 19:07:46.545,1789337266.545143,-70
2026-09-13 19:07:46.552,1789337266.552835,-92
2026-09-13 19:07:46.560,1789337266.5605273,-89
2026-09-13 19:07:46.568,1789337266.5682197,-82
2026-09-13 19:07:46.575,1789337266.57533,-80
2026-09-13 19:07:46.583,1789337266.5830224,-80
2026-09-13 19:07:46.590,1789337266.5907147,-70
2026-09-13 19:07:46.598,1789337266.598407,-60
2026-09-13 19:07:46.606,1789337266.6060994,14
2026-09-13 19:07:46.613,1789337266.6137915,254
2026-09-13 19:07:46.621,1789337266.6214838,579
2026-09-13 19:07:46.629,1789337266.6291761,691
2026-09-13 19:07:46.636,1789337266.6368685,230
2026-09-13 19:07:46.644,1789337266.6445608,-409
2026-09-13 19:07:46.652,1789337266.6522532,-383
2026-09-13 19:07:46.659,1789337266.6599455,-33
2026-09-13 19:07:46.667,1789337266.6676378,-58
2026-09-13 19:07:46.675,1789337266.67533,-147
2026-09-13 19:07:46.683,1789337266.6830223,-75
2026-09-13 19:07:46.690,1789337266.6907146,-63
2026-09-13 19:07:46.698,1789337266.698407,-97
2026-09-13 19:07:46.706,1789337266.7060993,-75
2026-09-13 19:07:46.713,1789337266.7137916,-55
2026-09-13 19:07:46.721,1789337266.721484,-58
2026-09-13 19:07:46.729,1789337266.7291763,-48
2026-09-13 19:07:46.736,1789337266.7368684,-36
2026-09-13 19:07:46.744,1789337266.7445607,-29
2026-09-13 19:07:46.752,1789337266.752253,-21
2026-09-13 19:07:46.759,1789337266.7599454,-12
2026-09-13 19:07:46.767,1789337266.7676377,-2
2026-09-13 19:07:46.775,1789337266.77533,9
2026-09-13 19:07:46.783,1789337266.7830224,19
2026-09-13 19:07:46.790,1789337266.7907147,31
2026-09-13 19:07:46.798,1789337266.7984068,48
2026-09-13 19:07:46.806,1789337266.8060992,60
2026-09-13 19:07:46.813,1789337266.8137915,65
2026-09-13 19:07:46.821,1789337266.8214839,65
2026-09-13 19:07:46.829,1789337266.8291762,65
2026-09-13 19:07:46.836,1789337266.8368685,60
2026-09-13 19:07:46.844,1789337266.8445609,55
2026-09-13 19:07:46.852,1789337266.8522532,48
2026-09-13 19:07:46.859,1789337266.8599453,33
2026-09-13 19:07:46.867,1789337266.8676376,-2
2026-09-13 19:07:46.875,1789337266.87533,-43
2026-09-13 19:07:46.883,1789337266.8830223,-75
2026-09-13 19:07:46.890,1789337266.8907146,-104
2026-09-13 19:07:46.898,1789337266.898407,-130
2026-09-13 19:07:46.906,1789337266.9060993,-140
2026-09-13 19:07:46.913,1789337266.9137917,-140
2026-09-13 19:07:46.921,1789337266.9214838,-145
2026-09-13 19:07:46.929,1789337266.929176,-145
2026-09-13 19:07:46.936,1789337266.9368684,-138
2026-09-13 19:07:46.944,1789337266.9445608,-133
2026-09-13 19:07:46.952,1789337266.952253,-126
2026-09-13 19:07:46.959,1789337266.9599454,-118
2026-09-13 19:07:46.967,1789337266.9676378,-109
2026-09-13 19:07:46.975,1789337266.97533,-101
2026-09-13 19:07:46.983,1789337266.9830222,-99
2026-09-13 19:07:46.990,1789337266.9907146,-94
2026-09-13 19:07:46.998,1789337266.998407,-89
2026-09-13 19:07:47.006,1789337267.0060992,-92
2026-09-13 19:07:47.013,1789337267.0137916,-104
2026-09-13 19:07:47.021,1789337267.021484,-109
2026-09-13 19:07:47.029,1789337267.0291762,-101
2026-09-13 19:07:47.036,1789337267.0368686,-97
2026-09-13 19:07:47.044,1789337267.0445607,-89
2026-09-13 19:07:47.052,1789337267.052253,-72
2026-09-13 19:07:47.059,1789337267.0599453,-53
2026-09-13 19:07:47.067,1789337267.0676377,-46
2026-09-13 19:07:47.075,1789337267.07533,-53
2026-09-13 19:07:47.083,1789337267.0830224,-72
2026-09-13 19:07:47.090,1789337267.0907147,-94
2026-09-13 19:07:47.098,1789337267.098407,-106
2026-09-13 19:07:47.106,1789337267.1060994,-106
2026-09-13 19:07:47.113,1789337267.1137915,-109
2026-09-13 19:07:47.121,1789337267.1214838,-106
2026-09-13 19:07:47.129,1789337267.1291761,-99
2026-09-13 19:07:47.136,1789337267.1362712,-99
2026-09-13 19:07:47.143,1789337267.1439636,-109
2026-09-13 19:07:47.151,1789337267.151656,-116
2026-09-13 19:07:47.159,1789337267.1593482,-60
2026-09-13 19:07:47.167,1789337267.1670406,121
2026-09-13 19:07:47.174,1789337267.1747327,438
2026-09-13 19:07:47.182,1789337267.182425,720
2026-09-13 19:07:47.190,1789337267.1901174,458
2026-09-13 19:07:47.197,1789337267.1978097,-257
2026-09-13 19:07:47.205,1789337267.205502,-434
2026-09-13 19:07:47.213,1789337267.2131944,-89
2026-09-13 19:07:47.220,1789337267.2208867,-50
2026-09-13 19:07:47.228,1789337267.228579,-184
2026-09-13 19:07:47.236,1789337267.2362711,-128
2026-09-13 19:07:47.243,1789337267.2439635,-87
2026-09-13 19:07:47.251,1789337267.2516558,-128
2026-09-13 19:07:47.259,1789337267.2593482,-116
2026-09-13 19:07:47.267,1789337267.2670405,-87
2026-09-13 19:07:47.274,1789337267.2747328,-94
2026-09-13 19:07:47.282,1789337267.2824252,-89
2026-09-13 19:07:47.290,1789337267.2901175,-70
2026-09-13 19:07:47.297,1789337267.2978096,-65
2026-09-13 19:07:47.305,1789337267.305502,-60
2026-09-13 19:07:47.313,1789337267.3131943,-48
2026-09-13 19:07:47.320,1789337267.3208866,-41
2026-09-13 19:07:47.328,1789337267.328579,-33
2026-09-13 19:07:47.336,1789337267.3362713,-26
2026-09-13 19:07:47.343,1789337267.3439636,-21
2026-09-13 19:07:47.351,1789337267.351656,-16
2026-09-13 19:07:47.359,1789337267.359348,-9
2026-09-13 19:07:47.367,1789337267.3670404,-7
2026-09-13 19:07:47.374,1789337267.3747327,-12
2026-09-13 19:07:47.382,1789337267.382425,-19
2026-09-13 19:07:47.390,1789337267.3901174,-26
2026-09-13 19:07:47.397,1789337267.3978097,-29
2026-09-13 19:07:47.405,1789337267.405502,-29
2026-09-13 19:07:47.413,1789337267.4131944,-31
2026-09-13 19:07:47.420,1789337267.4208865,-41
2026-09-13 19:07:47.428,1789337267.4285789,-58
2026-09-13 19:07:47.436,1789337267.4362712,-77
2026-09-13 19:07:47.443,1789337267.4439635,-92
2026-09-13 19:07:47.451,1789337267.4516559,-101
2026-09-13 19:07:47.459,1789337267.4593482,-109
2026-09-13 19:07:47.467,1789337267.4670405,-109
2026-09-13 19:07:47.474,1789337267.4747329,-106
2026-09-13 19:07:47.482,1789337267.482425,-101
2026-09-13 19:07:47.490,1789337267.4901173,-94
2026-09-13 19:07:47.497,1789337267.4978096,-84
2026-09-13 19:07:47.505,1789337267.505502,-77
2026-09-13 19:07:47.513,1789337267.5131943,-72
2026-09-13 19:07:47.520,1789337267.5208867,-70
2026-09-13 19:07:47.528,1789337267.528579,-65
2026-09-13 19:07:47.536,1789337267.5362713,-63
2026-09-13 19:07:47.543,1789337267.5439634,-63
2026-09-13 19:07:47.551,1789337267.5516558,-65
2026-09-13 19:07:47.559,1789337267.559348,-60
2026-09-13 19:07:47.567,1789337267.5670404,-58
2026-09-13 19:07:47.574,1789337267.5747328,-63
2026-09-13 19:07:47.582,1789337267.582425,-67
2026-09-13 19:07:47.590,1789337267.5901175,-77
2026-09-13 19:07:47.597,1789337267.5978098,-80
2026-09-13 19:07:47.605,1789337267.605502,-70
2026-09-13 19:07:47.613,1789337267.6131942,-60
2026-09-13 19:07:47.620,1789337267.6208866,-48
2026-09-13 19:07:47.628,1789337267.628579,-24
2026-09-13 19:07:47.636,1789337267.6362712,-9
2026-09-13 19:07:47.643,1789337267.6439636,-12
2026-09-13 19:07:47.651,1789337267.651656,-29
2026-09-13 19:07:47.659,1789337267.6593482,-50
2026-09-13 19:07:47.667,1789337267.6670406,-67
2026-09-13 19:07:47.674,1789337267.6747327,-72
2026-09-13 19:07:47.682,1789337267.682425,-77
2026-09-13 19:07:47.690,1789337267.6901174,-80
2026-09-13 19:07:47.697,1789337267.6972125,-72
2026-09-13 19:07:47.704,1789337267.7049048,-67
2026-09-13 19:07:47.712,1789337267.7125971,-75
2026-09-13 19:07:47.720,1789337267.7202895,-87
2026-09-13 19:07:47.727,1789337267.7279818,-50
2026-09-13 19:07:47.735,1789337267.735674,89
2026-09-13 19:07:47.743,1789337267.7433662,349
2026-09-13 19:07:47.751,1789337267.7510586,715
2026-09-13 19:07:47.758,1789337267.758751,763
2026-09-13 19:07:47.766,1789337267.7664433,116
2026-09-13 19:07:47.774,1789337267.7741356,-404
2026-09-13 19:07:47.781,1789337267.781828,-189
2026-09-13 19:07:47.789,1789337267.7895203,0
2026-09-13 19:07:47.797,1789337267.7972124,-138
2026-09-13 19:07:47.804,1789337267.8049047,-147
2026-09-13 19:07:47.812,1789337267.812597,-67
2026-09-13 19:07:47.820,1789337267.8202894,-94
2026-09-13 19:07:47.827,1789337267.8279817,-111
2026-09-13 19:07:47.835,1789337267.835674,-77
2026-09-13 19:07:47.843,1789337267.8433664,-70
2026-09-13 19:07:47.851,1789337267.8510587,-72
2026-09-13 19:07:47.858,1789337267.8587508,-60
2026-09-13 19:07:47.866,1789337267.8664432,-48
2026-09-13 19:07:47.874,1789337267.8741355,-46
2026-09-13 19:07:47.881,1789337267.8818278,-41
2026-09-13 19:07:47.889,1789337267.8895202,-31
2026-09-13 19:07:47.897,1789337267.8972125,-26
2026-09-13 19:07:47.904,1789337267.9049048,-19
2026-09-13 19:07:47.912,1789337267.9125972,-14
2026-09-13 19:07:47.920,1789337267.9202893,-9
2026-09-13 19:07:47.927,1789337267.9279816,-4
2026-09-13 19:07:47.935,1789337267.935674,-4
2026-09-13 19:07:47.943,1789337267.9433663,-4
2026-09-13 19:07:47.951,1789337267.9510586,-7
2026-09-13 19:07:47.958,1789337267.958751,-14
2026-09-13 19:07:47.966,1789337267.9664433,-19
2026-09-13 19:07:47.974,1789337267.9741356,-19
2026-09-13 19:07:47.981,1789337267.9818277,-19
2026-09-13 19:07:47.989,1789337267.98952,-24
2026-09-13 19:07:47.997,1789337267.9972124,-36
2026-09-13 19:07:48.004,1789337268.0049047,-50
2026-09-13 19:07:48.012,1789337268.012597,-70
2026-09-13 19:07:48.020,1789337268.0202894,-84
2026-09-13 19:07:48.027,1789337268.0279818,-89
2026-09-13 19:07:48.035,1789337268.035674,-94
2026-09-13 19:07:48.043,1789337268.0433662,-94
2026-09-13 19:07:48.051,1789337268.0510585,-89
2026-09-13 19:07:48.058,1789337268.0587509,-84
2026-09-13 19:07:48.066,1789337268.0664432,-77
2026-09-13 19:07:48.074,1789337268.0741355,-72
2026-09-13 19:07:48.081,1789337268.0818279,-67
2026-09-13 19:07:48.089,1789337268.0895202,-63
2026-09-13 19:07:48.097,1789337268.0972126,-60
2026-09-13 19:07:48.104,1789337268.1049047,-58
2026-09-13 19:07:48.112,1789337268.112597,-60
2026-09-13 19:07:48.120,1789337268.1202893,-58
2026-09-13 19:07:48.127,1789337268.1279817,-53
2026-09-13 19:07:48.135,1789337268.135674,-55
2026-09-13 19:07:48.143,1789337268.1433663,-55
2026-09-13 19:07:48.151,1789337268.1510587,-55
2026-09-13 19:07:48.158,1789337268.158751,-55
2026-09-13 19:07:48.166,1789337268.166443,-53
2026-09-13 19:07:48.174,1789337268.1741354,-60
2026-09-13 19:07:48.181,1789337268.1818278,-75
2026-09-13 19:07:48.189,1789337268.1895201,-77
2026-09-13 19:07:48.197,1789337268.1972125,-55
2026-09-13 19:07:48.204,1789337268.2049048,-46
2026-09-13 19:07:48.212,1789337268.2125971,-43
2026-09-13 19:07:48.220,1789337268.2202895,-21
2026-09-13 19:07:48.227,1789337268.2279818,2
2026-09-13 19:07:48.235,1789337268.235674,-2
2026-09-13 19:07:48.243,1789337268.2433662,-14
2026-09-13 19:07:48.251,1789337268.2510586,-29
2026-09-13 19:07:48.258,1789337268.2581842,-50
2026-09-13 19:07:48.265,1789337268.2658765,-65
2026-09-13 19:07:48.273,1789337268.2735689,-67
2026-09-13 19:07:48.281,1789337268.2812612,-70
2026-09-13 19:07:48.288,1789337268.2889535,-70
2026-09-13 19:07:48.296,1789337268.2966456,-65
2026-09-13 19:07:48.304,1789337268.304338,-63
2026-09-13 19:07:48.312,1789337268.3120303,-72
2026-09-13 19:07:48.319,1789337268.3197227,-67
2026-09-13 19:07:48.327,1789337268.327415,24
2026-09-13 19:07:48.335,1789337268.3351073,213
2026-09-13 19:07:48.342,1789337268.3427997,504
2026-09-13 19:07:48.350,1789337268.350492,681
2026-09-13 19:07:48.358,1789337268.358184,295
2026-09-13 19:07:48.365,1789337268.3658764,-278
2026-09-13 19:07:48.373,1789337268.3735688,-269
2026-09-13 19:07:48.381,1789337268.381261,-26
2026-09-13 19:07:48.388,1789337268.3889534,-72
2026-09-13 19:07:48.396,1789337268.3966458,-133
2026-09-13 19:07:48.404,1789337268.4043381,-72
2026-09-13 19:07:48.412,1789337268.4120305,-70
2026-09-13 19:07:48.419,1789337268.4197226,-92
2026-09-13 19:07:48.427,1789337268.427415,-67
2026-09-13 19:07:48.435,1789337268.4351072,-55
2026-09-13 19:07:48.442,1789337268.4427996,-55
2026-09-13 19:07:48.450,1789337268.450492,-46
2026-09-13 19:07:48.458,1789337268.4581842,-36
2026-09-13 19:07:48.465,1789337268.4658766,-31
2026-09-13 19:07:48.473,1789337268.473569,-24
2026-09-13 19:07:48.481,1789337268.481261,-14
2026-09-13 19:07:48.488,1789337268.4889534,-7
2026-09-13 19:07:48.496,1789337268.4966457,0
2026-09-13 19:07:48.504,1789337268.504338,7
2026-09-13 19:07:48.512,1789337268.5120304,16
2026-09-13 19:07:48.519,1789337268.5197227,24
2026-09-13 19:07:48.527,1789337268.527415,29
2026-09-13 19:07:48.535,1789337268.5351074,31
2026-09-13 19:07:48.542,1789337268.5427995,33
2026-09-13 19:07:48.550,1789337268.5504918,36
2026-09-13 19:07:48.558,1789337268.5581841,36
2026-09-13 19:07:48.565,1789337268.5658765,36
2026-09-13 19:07:48.573,1789337268.5735688,33
2026-09-13 19:07:48.581,1789337268.5812612,31
2026-09-13 19:07:48.588,1789337268.5889535,24
2026-09-13 19:07:48.596,1789337268.5966458,2
2026-09-13 19:07:48.604,1789337268.604338,-24
2026-09-13 19:07:48.612,1789337268.6120303,-46
2026-09-13 19:07:48.619,1789337268.6197226,-63
2026-09-13 19:07:48.627,1789337268.627415,-77
2026-09-13 19:07:48.635,1789337268.6351073,-84
2026-09-13 19:07:48.642,1789337268.6427996,-82
2026-09-13 19:07:48.650,1789337268.650492,-70
2026-09-13 19:07:48.658,1789337268.6581843,-55
2026-09-13 19:07:48.665,1789337268.6658764,-53
2026-09-13 19:07:48.673,1789337268.6735687,-50
2026-09-13 19:07:48.681,1789337268.681261,-36
2026-09-13 19:07:48.688,1789337268.6889534,-29
2026-09-13 19:07:48.696,1789337268.6966457,-33
2026-09-13 19:07:48.704,1789337268.704338,-38
2026-09-13 19:07:48.712,1789337268.7120304,-46
2026-09-13 19:07:48.719,1789337268.7197227,-43
2026-09-13 19:07:48.727,1789337268.7274148,-29
2026-09-13 19:07:48.735,1789337268.7351072,-24
2026-09-13 19:07:48.742,1789337268.7427995,-29
2026-09-13 19:07:48.750,1789337268.7504919,-26
2026-09-13 19:07:48.758,1789337268.7581842,-24
2026-09-13 19:07:48.765,1789337268.7658765,-26
2026-09-13 19:07:48.773,1789337268.7735689,-26
2026-09-13 19:07:48.781,1789337268.7812612,-31
2026-09-13 19:07:48.788,1789337268.7889535,-41
2026-09-13 19:07:48.796,1789337268.7966456,-36
2026-09-13 19:07:48.804,1789337268.804338,-21
2026-09-13 19:07:48.812,1789337268.8120303,-12
2026-09-13 19:07:48.819,1789337268.8191254,9
2026-09-13 19:07:48.826,1789337268.8268178,43
2026-09-13 19:07:48.834,1789337268.83451,60
2026-09-13 19:07:48.842,1789337268.8422024,46
2026-09-13 19:07:48.849,1789337268.8498948,24
2026-09-13 19:07:48.857,1789337268.8575869,4
2026-09-13 19:07:48.865,1789337268.8652792,-14
2026-09-13 19:07:48.872,1789337268.8729715,-21
2026-09-13 19:07:48.880,1789337268.8806639,-19
2026-09-13 19:07:48.888,1789337268.8883562,-21
2026-09-13 19:07:48.896,1789337268.8960485,-24
2026-09-13 19:07:48.903,1789337268.903741,-21
2026-09-13 19:07:48.911,1789337268.9114332,-29
2026-09-13 19:07:48.919,1789337268.9191253,-33
2026-09-13 19:07:48.926,1789337268.9268177,29
2026-09-13 19:07:48.934,1789337268.93451,189
2026-09-13 19:07:48.942,1789337268.9422023,438
2026-09-13 19:07:48.949,1789337268.9498947,696
2026-09-13 19:07:48.957,1789337268.957587,557
2026-09-13 19:07:48.965,1789337268.9652793,-89
2026-09-13 19:07:48.972,1789337268.9729717,-404
2026-09-13 19:07:48.980,1789337268.9806638,-118
2026-09-13 19:07:48.988,1789337268.988356,19
2026-09-13 19:07:48.996,1789337268.9960485,-80
2026-09-13 19:07:49.003,1789337269.0037408,-58
2026-09-13 19:07:49.011,1789337269.0114331,-21
2026-09-13 19:07:49.019,1789337269.0191255,-50
2026-09-13 19:07:49.026,1789337269.0268178,-33
2026-09-13 19:07:49.034,1789337269.0345101,-2
2026-09-13 19:07:49.042,1789337269.0422022,-14
2026-09-13 19:07:49.049,1789337269.0498946,-14
2026-09-13 19:07:49.057,1789337269.057587,14
2026-09-13 19:07:49.065,1789337269.0652792,21
2026-09-13 19:07:49.072,1789337269.0729716,16
2026-09-13 19:07:49.080,1789337269.080664,21
2026-09-13 19:07:49.088,1789337269.0883563,29
2026-09-13 19:07:49.096,1789337269.0960486,41
2026-09-13 19:07:49.103,1789337269.1037407,60
2026-09-13 19:07:49.111,1789337269.111433,75
2026-09-13 19:07:49.119,1789337269.1191254,77
2026-09-13 19:07:49.126,1789337269.1268177,89
2026-09-13 19:07:49.134,1789337269.13451,106
2026-09-13 19:07:49.142,1789337269.1422024,111
2026-09-13 19:07:49.149,1789337269.1498947,116
2026-09-13 19:07:49.157,1789337269.157587,118
2026-09-13 19:07:49.165,1789337269.1652792,109
2026-09-13 19:07:49.172,1789337269.1729715,111
2026-09-13 19:07:49.180,1789337269.1806638,128
2026-09-13 19:07:49.188,1789337269.1883562,118
2026-09-13 19:07:49.196,1789337269.1960485,70
2026-09-13 19:07:49.203,1789337269.2037408,21
2026-09-13 19:07:49.211,1789337269.2114332,0
2026-09-13 19:07:49.219,1789337269.2191255,-33
2026-09-13 19:07:49.226,1789337269.2268176,-65
2026-09-13 19:07:49.234,1789337269.23451,-67
2026-09-13 19:07:49.242,1789337269.2422023,-63
2026-09-13 19:07:49.249,1789337269.2498946,-72
2026-09-13 19:07:49.257,1789337269.257587,-82
2026-09-13 19:07:49.265,1789337269.2652793,-75
2026-09-13 19:07:49.272,1789337269.2729716,-63
2026-09-13 19:07:49.280,1789337269.280664,-48
2026-09-13 19:07:49.288,1789337269.288356,-36
2026-09-13 19:07:49.296,1789337269.2960484,-29
2026-09-13 19:07:49.303,1789337269.3037407,-29
2026-09-13 19:07:49.311,1789337269.311433,-31
2026-09-13 19:07:49.319,1789337269.3191254,-31
2026-09-13 19:07:49.326,1789337269.3268178,-33
2026-09-13 19:07:49.334,1789337269.33451,-31
2026-09-13 19:07:49.342,1789337269.3422024,-24
2026-09-13 19:07:49.349,1789337269.3498948,-21
2026-09-13 19:07:49.357,1789337269.3575869,-24
2026-09-13 19:07:49.365,1789337269.3652792,-21
2026-09-13 19:07:49.372,1789337269.3729715,-21
2026-09-13 19:07:49.380,1789337269.380082,-43
2026-09-13 19:07:49.387,1789337269.3877742,-53
2026-09-13 19:07:49.395,1789337269.3954666,-33
2026-09-13 19:07:49.403,1789337269.403159,-26
2026-09-13 19:07:49.410,1789337269.4108512,-24
2026-09-13 19:07:49.418,1789337269.4185433,7
2026-09-13 19:07:49.426,1789337269.4262357,33
2026-09-13 19:07:49.433,1789337269.433928,29
2026-09-13 19:07:49.441,1789337269.4416203,7
2026-09-13 19:07:49.449,1789337269.4493127,-16
2026-09-13 19:07:49.457,1789337269.457005,-31
2026-09-13 19:07:49.464,1789337269.4646974,-24
2026-09-13 19:07:49.472,1789337269.4723897,-16
2026-09-13 19:07:49.480,1789337269.4800818,-19
2026-09-13 19:07:49.487,1789337269.4877741,-24
2026-09-13 19:07:49.495,1789337269.4954665,-29
2026-09-13 19:07:49.503,1789337269.5031588,-33
2026-09-13 19:07:49.510,1789337269.5108511,-43
2026-09-13 19:07:49.518,1789337269.5185435,-21
2026-09-13 19:07:49.526,1789337269.5262358,116
2026-09-13 19:07:49.533,1789337269.5339282,395
2026-09-13 19:07:49.541,1789337269.5416203,729
2026-09-13 19:07:49.549,1789337269.5493126,756
2026-09-13 19:07:49.557,1789337269.557005,150
2026-09-13 19:07:49.564,1789337269.5646973,-426
2026-09-13 19:07:49.572,1789337269.5723896,-261
2026-09-13 19:07:49.580,1789337269.580082,19
2026-09-13 19:07:49.587,1789337269.5877743,-50
2026-09-13 19:07:49.595,1789337269.5954666,-89
2026-09-13 19:07:49.603,1789337269.6031587,-41
2026-09-13 19:07:49.610,1789337269.610851,-60
2026-09-13 19:07:49.618,1789337269.6185434,-63
2026-09-13 19:07:49.626,1789337269.6262357,-33
2026-09-13 19:07:49.633,1789337269.633928,-36
2026-09-13 19:07:49.641,1789337269.6416204,-33
2026-09-13 19:07:49.649,1789337269.6493127,-9
2026-09-13 19:07:49.657,1789337269.657005,-2
2026-09-13 19:07:49.664,1789337269.6646972,-2
2026-09-13 19:07:49.672,1789337269.6723895,12
2026-09-13 19:07:49.680,1789337269.6800818,21
2026-09-13 19:07:49.687,1789337269.6877742,26
2026-09-13 19:07:49.695,1789337269.6954665,38
2026-09-13 19:07:49.703,1789337269.7031589,55
2026-09-13 19:07:49.710,1789337269.7108512,63
2026-09-13 19:07:49.718,1789337269.7185435,70
2026-09-13 19:07:49.726,1789337269.7262356,82
2026-09-13 19:07:49.733,1789337269.733928,92
2026-09-13 19:07:49.741,1789337269.7416203,94
2026-09-13 19:07:49.749,1789337269.7493126,92
2026-09-13 19:07:49.757,1789337269.757005,89
2026-09-13 19:07:49.764,1789337269.7646973,87
2026-09-13 19:07:49.772,1789337269.7723897,84
2026-09-13 19:07:49.780,1789337269.780082,70
2026-09-13 19:07:49.787,1789337269.787774,36
2026-09-13 19:07:49.795,1789337269.7954664,-4
2026-09-13 19:07:49.803,1789337269.8031588,-43
2026-09-13 19:07:49.810,1789337269.810851,-70
2026-09-13 19:07:49.818,1789337269.8185434,-89
2026-09-13 19:07:49.826,1789337269.8262358,-104
2026-09-13 19:07:49.833,1789337269.833928,-113
2026-09-13 19:07:49.841,1789337269.8416204,-116
2026-09-13 19:07:49.849,1789337269.8493125,-113
2026-09-13 19:07:49.857,1789337269.857005,-111
2026-09-13 19:07:49.864,1789337269.8646972,-106
2026-09-13 19:07:49.872,1789337269.8723896,-99
2026-09-13 19:07:49.880,1789337269.880082,-89
2026-09-13 19:07:49.887,1789337269.8877742,-84
2026-09-13 19:07:49.895,1789337269.8954666,-80
2026-09-13 19:07:49.903,1789337269.903159,-77
2026-09-13 19:07:49.910,1789337269.9108512,-75
2026-09-13 19:07:49.918,1789337269.9185433,-70
2026-09-13 19:07:49.926,1789337269.9262357,-72
2026-09-13 19:07:49.933,1789337269.933928,-75
2026-09-13 19:07:49.941,1789337269.9410279,-75
2026-09-13 19:07:49.948,1789337269.9487202,-77
2026-09-13 19:07:49.956,1789337269.9564126,-89
2026-09-13 19:07:49.964,1789337269.964105,-94
2026-09-13 19:07:49.971,1789337269.9717972,-87
2026-09-13 19:07:49.979,1789337269.9794893,-87
2026-09-13 19:07:49.987,1789337269.9871817,-82
2026-09-13 19:07:49.994,1789337269.994874,-53
2026-09-13 19:07:50.002,1789337270.0025663,-31
2026-09-13 19:07:50.010,1789337270.0102587,-33
2026-09-13 19:07:50.017,1789337270.017951,-46
2026-09-13 19:07:50.025,1789337270.0256433,-65
2026-09-13 19:07:50.033,1789337270.0333357,-84
2026-09-13 19:07:50.041,1789337270.0410278,-94
2026-09-13 19:07:50.048,1789337270.0487201,-94
2026-09-13 19:07:50.056,1789337270.0564125,-89
2026-09-13 19:07:50.064,1789337270.0641048,-87
2026-09-13 19:07:50.071,1789337270.0717971,-87
2026-09-13 19:07:50.079,1789337270.0794895,-89
2026-09-13 19:07:50.087,1789337270.0871818,-97
2026-09-13 19:07:50.094,1789337270.0948741,-82
2026-09-13 19:07:50.102,1789337270.1025662,24
2026-09-13 19:07:50.110,1789337270.1102586,269
2026-09-13 19:07:50.117,1789337270.117951,608
2026-09-13 19:07:50.125,1789337270.1256433,715
2026-09-13 19:07:50.133,1789337270.1333356,172
2026-09-13 19:07:50.141,1789337270.141028,-426
2026-09-13 19:07:50.148,1789337270.1487203,-303
2026-09-13 19:07:50.156,1789337270.1564126,-21
2026-09-13 19:07:50.164,1789337270.1641047,-116
2026-09-13 19:07:50.171,1789337270.171797,-169
2026-09-13 19:07:50.179,1789337270.1794894,-84
2026-09-13 19:07:50.187,1789337270.1871817,-97
2026-09-13 19:07:50.194,1789337270.194874,-123
2026-09-13 19:07:50.202,1789337270.2025664,-92
2026-09-13 19:07:50.210,1789337270.2102587,-77
2026-09-13 19:07:50.217,1789337270.217951,-89
2026-09-13 19:07:50.225,1789337270.2256432,-84
2026-09-13 19:07:50.233,1789337270.2333355,-70
2026-09-13 19:07:50.241,1789337270.2410278,-60
2026-09-13 19:07:50.248,1789337270.2487202,-55
2026-09-13 19:07:50.256,1789337270.2564125,-50
2026-09-13 19:07:50.264,1789337270.2641048,-43
2026-09-13 19:07:50.271,1789337270.2717972,-33
2026-09-13 19:07:50.279,1789337270.2794895,-24
2026-09-13 19:07:50.287,1789337270.2871816,-19
2026-09-13 19:07:50.294,1789337270.294874,-14
2026-09-13 19:07:50.302,1789337270.3025663,-9
2026-09-13 19:07:50.310,1789337270.3102586,-4
2026-09-13 19:07:50.317,1789337270.317951,-9
2026-09-13 19:07:50.325,1789337270.3256433,-14
2026-09-13 19:07:50.333,1789337270.3333356,-16
2026-09-13 19:07:50.341,1789337270.341028,-19
2026-09-13 19:07:50.348,1789337270.34872,-16
2026-09-13 19:07:50.356,1789337270.3564124,-21
2026-09-13 19:07:50.364,1789337270.3641047,-41
2026-09-13 19:07:50.371,1789337270.371797,-65
2026-09-13 19:07:50.379,1789337270.3794894,-84
2026-09-13 19:07:50.387,1789337270.3871818,-106
2026-09-13 19:07:50.394,1789337270.394874,-118
2026-09-13 19:07:50.402,1789337270.4025664,-123
2026-09-13 19:07:50.410,1789337270.4102585,-126
2026-09-13 19:07:50.417,1789337270.4179509,-126
2026-09-13 19:07:50.425,1789337270.4256432,-121
2026-09-13 19:07:50.433,1789337270.4333355,-113
2026-09-13 19:07:50.441,1789337270.4410279,-104
2026-09-13 19:07:50.448,1789337270.4487202,-99
2026-09-13 19:07:50.456,1789337270.4564126,-97
2026-09-13 19:07:50.464,1789337270.464105,-94
2026-09-13 19:07:50.471,1789337270.4717972,-92
2026-09-13 19:07:50.479,1789337270.4794893,-89
2026-09-13 19:07:50.487,1789337270.4871817,-89
2026-09-13 19:07:50.494,1789337270.494874,-89
2026-09-13 19:07:50.501,1789337270.5019743,-92
2026-09-13 19:07:50.509,1789337270.5096667,-92
2026-09-13 19:07:50.517,1789337270.517359,-92
2026-09-13 19:07:50.525,1789337270.5250514,-97
2026-09-13 19:07:50.532,1789337270.5327437,-111
2026-09-13 19:07:50.540,1789337270.5404358,-113
2026-09-13 19:07:50.548,1789337270.5481281,-106
2026-09-13 19:07:50.555,1789337270.5558205,-97
2026-09-13 19:07:50.563,1789337270.5635128,-92
2026-09-13 19:07:50.571,1789337270.5712051,-72
2026-09-13 19:07:50.578,1789337270.5788975,-43
2026-09-13 19:07:50.586,1789337270.5865898,-41
2026-09-13 19:07:50.594,1789337270.5942822,-58
2026-09-13 19:07:50.601,1789337270.6019742,-72
2026-09-13 19:07:50.609,1789337270.6096666,-92
2026-09-13 19:07:50.617,1789337270.617359,-104
2026-09-13 19:07:50.625,1789337270.6250513,-104
2026-09-13 19:07:50.632,1789337270.6327436,-106
2026-09-13 19:07:50.640,1789337270.640436,-109
2026-09-13 19:07:50.648,1789337270.6481283,-106
2026-09-13 19:07:50.655,1789337270.6558206,-101
2026-09-13 19:07:50.663,1789337270.6635127,-111
2026-09-13 19:07:50.671,1789337270.671205,-118
2026-09-13 19:07:50.678,1789337270.6788974,-53
2026-09-13 19:07:50.686,1789337270.6865897,123
2026-09-13 19:07:50.694,1789337270.694282,417
2026-09-13 19:07:50.701,1789337270.7019744,691
2026-09-13 19:07:50.709,1789337270.7096667,438
2026-09-13 19:07:50.717,1789337270.717359,-237
2026-09-13 19:07:50.725,1789337270.7250512,-392
2026-09-13 19:07:50.732,1789337270.7327435,-89
2026-09-13 19:07:50.740,1789337270.7404358,-77
2026-09-13 19:07:50.748,1789337270.7481282,-189
2026-09-13 19:07:50.755,1789337270.7558205,-130
2026-09-13 19:07:50.763,1789337270.7635128,-101
2026-09-13 19:07:50.771,1789337270.7712052,-140
2026-09-13 19:07:50.778,1789337270.7788975,-123
2026-09-13 19:07:50.786,1789337270.7865896,-97
2026-09-13 19:07:50.794,1789337270.794282,-104
2026-09-13 19:07:50.801,1789337270.8019743,-94
2026-09-13 19:07:50.809,1789337270.8096666,-75
2026-09-13 19:07:50.817,1789337270.817359,-75
2026-09-13 19:07:50.825,1789337270.8250513,-72
2026-09-13 19:07:50.832,1789337270.8327436,-65
2026-09-13 19:07:50.840,1789337270.840436,-60
2026-09-13 19:07:50.848,1789337270.848128,-55
2026-09-13 19:07:50.855,1789337270.8558204,-43
2026-09-13 19:07:50.863,1789337270.8635128,-33
2026-09-13 19:07:50.871,1789337270.871205,-29
2026-09-13 19:07:50.878,1789337270.8788974,-29
2026-09-13 19:07:50.886,1789337270.8865898,-26
2026-09-13 19:07:50.894,1789337270.894282,-24
2026-09-13 19:07:50.901,1789337270.9019744,-26
2026-09-13 19:07:50.909,1789337270.9096665,-31
2026-09-13 19:07:50.917,1789337270.9173589,-31
2026-09-13 19:07:50.925,1789337270.9250512,-24
2026-09-13 19:07:50.932,1789337270.9327435,-31
2026-09-13 19:07:50.940,1789337270.940436,-48
2026-09-13 19:07:50.948,1789337270.9481282,-65
2026-09-13 19:07:50.955,1789337270.9558206,-87
2026-09-13 19:07:50.963,1789337270.963513,-106
2026-09-13 19:07:50.971,1789337270.971205,-116
2026-09-13 19:07:50.978,1789337270.9788973,-123
2026-09-13 19:07:50.986,1789337270.9865897,-130
2026-09-13 19:07:50.994,1789337270.994282,-133
2026-09-13 19:07:51.001,1789337271.0019743,-128
2026-09-13 19:07:51.009,1789337271.0096667,-118
2026-09-13 19:07:51.017,1789337271.017359,-116
2026-09-13 19:07:51.025,1789337271.0250514,-111
2026-09-13 19:07:51.032,1789337271.0327437,-104
2026-09-13 19:07:51.040,1789337271.0404358,-99
2026-09-13 19:07:51.048,1789337271.0481281,-101
2026-09-13 19:07:51.055,1789337271.0558205,-99
2026-09-13 19:07:51.062,1789337271.0629206,-97
2026-09-13 19:07:51.070,1789337271.070613,-94
2026-09-13 19:07:51.078,1789337271.0783052,-92
2026-09-13 19:07:51.085,1789337271.0859976,-87
2026-09-13 19:07:51.093,1789337271.09369,-89
2026-09-13 19:07:51.101,1789337271.101382,-94
2026-09-13 19:07:51.109,1789337271.1090744,-97
2026-09-13 19:07:51.116,1789337271.1167667,-99
2026-09-13 19:07:51.124,1789337271.124459,-106
2026-09-13 19:07:51.132,1789337271.1321514,-97
2026-09-13 19:07:51.139,1789337271.1398437,-77
2026-09-13 19:07:51.147,1789337271.147536,-67
2026-09-13 19:07:51.155,1789337271.1552284,-46
2026-09-13 19:07:51.162,1789337271.1629205,-16
2026-09-13 19:07:51.170,1789337271.1706128,-19
2026-09-13 19:07:51.178,1789337271.1783051,-43
2026-09-13 19:07:51.185,1789337271.1859975,-60
2026-09-13 19:07:51.193,1789337271.1936898,-75
2026-09-13 19:07:51.201,1789337271.2013822,-89
2026-09-13 19:07:51.209,1789337271.2090745,-94
2026-09-13 19:07:51.216,1789337271.2167668,-94
2026-09-13 19:07:51.224,1789337271.224459,-92
2026-09-13 19:07:51.232,1789337271.2321513,-87
2026-09-13 19:07:51.239,1789337271.2398436,-84
2026-09-13 19:07:51.247,1789337271.247536,-94
2026-09-13 19:07:51.255,1789337271.2552283,-92
2026-09-13 19:07:51.262,1789337271.2629206,-24
2026-09-13 19:07:51.270,1789337271.270613,143
2026-09-13 19:07:51.278,1789337271.2783053,424
2026-09-13 19:07:51.285,1789337271.2859974,601
2026-09-13 19:07:51.293,1789337271.2936897,232
2026-09-13 19:07:51.301,1789337271.301382,-315
2026-09-13 19:07:51.309,1789337271.3090744,-298
2026-09-13 19:07:51.316,1789337271.3167667,-46
2026-09-13 19:07:51.324,1789337271.324459,-80
2026-09-13 19:07:51.332,1789337271.3321514,-138
2026-09-13 19:07:51.339,1789337271.3398438,-82
2026-09-13 19:07:51.347,1789337271.3475358,-80
2026-09-13 19:07:51.355,1789337271.3552282,-99
2026-09-13 19:07:51.362,1789337271.3629205,-77
2026-09-13 19:07:51.370,1789337271.3706129,-63
2026-09-13 19:07:51.378,1789337271.3783052,-65
2026-09-13 19:07:51.385,1789337271.3859975,-55
2026-09-13 19:07:51.393,1789337271.3936899,-41
2026-09-13 19:07:51.401,1789337271.4013822,-41
2026-09-13 19:07:51.409,1789337271.4090743,-36
2026-09-13 19:07:51.416,1789337271.4167666,-26
2026-09-13 19:07:51.424,1789337271.424459,-21
2026-09-13 19:07:51.432,1789337271.4321513,-14
2026-09-13 19:07:51.439,1789337271.4398437,-2
2026-09-13 19:07:51.447,1789337271.447536,7
2026-09-13 19:07:51.455,1789337271.4552283,16
2026-09-13 19:07:51.462,1789337271.4629207,21
2026-09-13 19:07:51.470,1789337271.4706128,29
2026-09-13 19:07:51.478,1789337271.478305,31
2026-09-13 19:07:51.485,1789337271.4859974,29
2026-09-13 19:07:51.493,1789337271.4936898,31
2026-09-13 19:07:51.501,1789337271.501382,33
2026-09-13 19:07:51.509,1789337271.5090744,36
2026-09-13 19:07:51.516,1789337271.5167668,29
2026-09-13 19:07:51.524,1789337271.5244591,14
2026-09-13 19:07:51.532,1789337271.5321512,-9
2026-09-13 19:07:51.539,1789337271.5398436,-38
2026-09-13 19:07:51.547,1789337271.547536,-63
2026-09-13 19:07:51.555,1789337271.5552282,-82
2026-09-13 19:07:51.562,1789337271.5629206,-94
2026-09-13 19:07:51.570,1789337271.570613,-97
2026-09-13 19:07:51.578,1789337271.5783052,-92
2026-09-13 19:07:51.585,1789337271.5859976,-87
2026-09-13 19:07:51.593,1789337271.59369,-82
2026-09-13 19:07:51.601,1789337271.601382,-70
2026-09-13 19:07:51.609,1789337271.6090744,-63
2026-09-13 19:07:51.616,1789337271.6167667,-65
2026-09-13 19:07:51.623,1789337271.6238668,-60
2026-09-13 19:07:51.631,1789337271.6315591,-46
2026-09-13 19:07:51.639,1789337271.6392515,-43
2026-09-13 19:07:51.646,1789337271.6469438,-53
2026-09-13 19:07:51.654,1789337271.6546361,-53
2026-09-13 19:07:51.662,1789337271.6623282,-41
2026-09-13 19:07:51.670,1789337271.6700206,-36
2026-09-13 19:07:51.677,1789337271.677713,-41
2026-09-13 19:07:51.685,1789337271.6854053,-43
2026-09-13 19:07:51.693,1789337271.6930976,-50
2026-09-13 19:07:51.700,1789337271.70079,-55
2026-09-13 19:07:51.708,1789337271.7084823,-46
2026-09-13 19:07:51.716,1789337271.7161746,-31
2026-09-13 19:07:51.723,1789337271.7238667,-16
2026-09-13 19:07:51.731,1789337271.731559,4
2026-09-13 19:07:51.739,1789337271.7392514,21
2026-09-13 19:07:51.746,1789337271.7469437,24
2026-09-13 19:07:51.754,1789337271.754636,16
2026-09-13 19:07:51.762,1789337271.7623284,2
2026-09-13 19:07:51.770,1789337271.7700207,-21
2026-09-13 19:07:51.777,1789337271.777713,-38
2026-09-13 19:07:51.785,1789337271.7854052,-41
2026-09-13 19:07:51.793,1789337271.7930975,-41
2026-09-13 19:07:51.800,1789337271.8007898,-46
2026-09-13 19:07:51.808,1789337271.8084822,-48
2026-09-13 19:07:51.816,1789337271.8161745,-41
2026-09-13 19:07:51.823,1789337271.8238668,-43
2026-09-13 19:07:51.831,1789337271.8315592,-55
2026-09-13 19:07:51.839,1789337271.8392515,0
2026-09-13 19:07:51.846,1789337271.8469436,167
2026-09-13 19:07:51.854,1789337271.854636,429
2026-09-13 19:07:51.862,1789337271.8623283,664
2026-09-13 19:07:51.870,1789337271.8700206,443
2026-09-13 19:07:51.877,1789337271.877713,-206
2026-09-13 19:07:51.885,1789337271.8854053,-392
2026-09-13 19:07:51.893,1789337271.8930976,-77
2026-09-13 19:07:51.900,1789337271.90079,-4
2026-09-13 19:07:51.908,1789337271.908482,-101
2026-09-13 19:07:51.916,1789337271.9161744,-60
2026-09-13 19:07:51.923,1789337271.9238667,-31
2026-09-13 19:07:51.931,1789337271.931559,-53
2026-09-13 19:07:51.939,1789337271.9392514,-33
2026-09-13 19:07:51.946,1789337271.9469438,-19
2026-09-13 19:07:51.954,1789337271.954636,-31
2026-09-13 19:07:51.962,1789337271.9623284,-21
2026-09-13 19:07:51.970,1789337271.9700205,0
2026-09-13 19:07:51.977,1789337271.9777129,-2
2026-09-13 19:07:51.985,1789337271.9854052,0
2026-09-13 19:07:51.993,1789337271.9930975,16
2026-09-13 19:07:52.000,1789337272.0007899,26
2026-09-13 19:07:52.008,1789337272.0084822,36
2026-09-13 19:07:52.016,1789337272.0161746,43
2026-09-13 19:07:52.023,1789337272.023867,53
2026-09-13 19:07:52.031,1789337272.031559,70
2026-09-13 19:07:52.039,1789337272.0392513,80
2026-09-13 19:07:52.046,1789337272.0469437,84
2026-09-13 19:07:52.054,1789337272.054636,89
2026-09-13 19:07:52.062,1789337272.0623283,97
2026-09-13 19:07:52.070,1789337272.0700207,106
2026-09-13 19:07:52.077,1789337272.077713,113
2026-09-13 19:07:52.085,1789337272.0854053,111
2026-09-13 19:07:52.093,1789337272.0930974,99
2026-09-13 19:07:52.100,1789337272.1007898,72
2026-09-13 19:07:52.108,1789337272.1084821,38
2026-09-13 19:07:52.116,1789337272.1161745,7
2026-09-13 19:07:52.123,1789337272.1238668,-31
2026-09-13 19:07:52.131,1789337272.1315591,-60
2026-09-13 19:07:52.139,1789337272.1392515,-72
2026-09-13 19:07:52.146,1789337272.1469438,-75
2026-09-13 19:07:52.154,1789337272.1546361,-80
2026-09-13 19:07:52.162,1789337272.1623282,-75
2026-09-13 19:07:52.170,1789337272.1700206,-72
2026-09-13 19:07:52.177,1789337272.177713,-75
2026-09-13 19:07:52.184,1789337272.1848335,-70
2026-09-13 19:07:52.192,1789337272.1925259,-63
2026-09-13 19:07:52.200,1789337272.2002182,-50
2026-09-13 19:07:52.207,1789337272.2079105,-36
2026-09-13 19:07:52.215,1789337272.2156029,-38
2026-09-13 19:07:52.223,1789337272.223295,-43
2026-09-13 19:07:52.230,1789337272.2309873,-36
2026-09-13 19:07:52.238,1789337272.2386796,-36
2026-09-13 19:07:52.246,1789337272.246372,-38
2026-09-13 19:07:52.254,1789337272.2540643,-36
2026-09-13 19:07:52.261,1789337272.2617567,-36
2026-09-13 19:07:52.269,1789337272.269449,-46
2026-09-13 19:07:52.277,1789337272.2771413,-43
2026-09-13 19:07:52.284,1789337272.2848334,-43
2026-09-13 19:07:52.292,1789337272.2925258,-48
2026-09-13 19:07:52.300,1789337272.300218,-19
2026-09-13 19:07:52.307,1789337272.3079104,21
2026-09-13 19:07:52.315,1789337272.3156028,24
2026-09-13 19:07:52.323,1789337272.323295,7
2026-09-13 19:07:52.330,1789337272.3309875,-4
2026-09-13 19:07:52.338,1789337272.3386798,-21
2026-09-13 19:07:52.346,1789337272.346372,-29
2026-09-13 19:07:52.354,1789337272.3540642,-29
2026-09-13 19:07:52.361,1789337272.3617566,-36
2026-09-13 19:07:52.369,1789337272.369449,-43
2026-09-13 19:07:52.377,1789337272.3771412,-38
2026-09-13 19:07:52.384,1789337272.3848336,-33
2026-09-13 19:07:52.392,1789337272.392526,-33
2026-09-13 19:07:52.400,1789337272.4002182,-43
2026-09-13 19:07:52.407,1789337272.4079103,-19
2026-09-13 19:07:52.415,1789337272.4156027,123
2026-09-13 19:07:52.423,1789337272.423295,412
2026-09-13 19:07:52.430,1789337272.4309874,717
2026-09-13 19:07:52.438,1789337272.4386797,608
2026-09-13 19:07:52.446,1789337272.446372,-75
2026-09-13 19:07:52.454,1789337272.4540644,-453
2026-09-13 19:07:52.461,1789337272.4617567,-150
2026-09-13 19:07:52.469,1789337272.4694488,21
2026-09-13 19:07:52.477,1789337272.4771411,-101
2026-09-13 19:07:52.484,1789337272.4848335,-84
2026-09-13 19:07:52.492,1789337272.4925258,-12
2026-09-13 19:07:52.500,1789337272.5002182,-46
2026-09-13 19:07:52.507,1789337272.5079105,-63
2026-09-13 19:07:52.515,1789337272.5156028,-29
2026-09-13 19:07:52.523,1789337272.5232952,-19
2026-09-13 19:07:52.530,1789337272.5309873,-31
2026-09-13 19:07:52.538,1789337272.5386796,-19
2026-09-13 19:07:52.546,1789337272.546372,7
2026-09-13 19:07:52.554,1789337272.5540643,14
2026-09-13 19:07:52.561,1789337272.5617566,16
2026-09-13 19:07:52.569,1789337272.569449,24
2026-09-13 19:07:52.577,1789337272.5771413,26
2026-09-13 19:07:52.584,1789337272.5848336,36
2026-09-13 19:07:52.592,1789337272.5925257,60
2026-09-13 19:07:52.600,1789337272.600218,70
2026-09-13 19:07:52.607,1789337272.6079104,72
2026-09-13 19:07:52.615,1789337272.6156027,87
2026-09-13 19:07:52.623,1789337272.623295,101
2026-09-13 19:07:52.630,1789337272.6309874,97
2026-09-13 19:07:52.638,1789337272.6386797,94
2026-09-13 19:07:52.646,1789337272.646372,97
2026-09-13 19:07:52.654,1789337272.6540642,77
2026-09-13 19:07:52.661,1789337272.6617565,60
2026-09-13 19:07:52.669,1789337272.6694489,53
2026-09-13 19:07:52.677,1789337272.6771412,21
2026-09-13 19:07:52.684,1789337272.6848335,-19
2026-09-13 19:07:52.692,1789337272.6925259,-46
2026-09-13 19:07:52.700,1789337272.7002182,-63
2026-09-13 19:07:52.707,1789337272.7079105,-80
2026-09-13 19:07:52.715,1789337272.7156029,-89
2026-09-13 19:07:52.723,1789337272.723295,-92
2026-09-13 19:07:52.730,1789337272.7309873,-97
2026-09-13 19:07:52.738,1789337272.7386796,-92
2026-09-13 19:07:52.745,1789337272.7457898,-84
2026-09-13 19:07:52.753,1789337272.753482,-75
2026-09-13 19:07:52.761,1789337272.7611744,-65
2026-09-13 19:07:52.768,1789337272.7688668,-60
2026-09-13 19:07:52.776,1789337272.776559,-58
2026-09-13 19:07:52.784,1789337272.7842512,-58
2026-09-13 19:07:52.791,1789337272.7919436,-60
2026-09-13 19:07:52.799,1789337272.799636,-60
2026-09-13 19:07:52.807,1789337272.8073282,-55
2026-09-13 19:07:52.815,1789337272.8150206,-53
2026-09-13 19:07:52.822,1789337272.822713,-60
2026-09-13 19:07:52.830,1789337272.8304052,-70
2026-09-13 19:07:52.838,1789337272.8380976,-67
2026-09-13 19:07:52.845,1789337272.8457897,-63
2026-09-13 19:07:52.853,1789337272.853482,-60
2026-09-13 19:07:52.861,1789337272.8611743,-48
2026-09-13 19:07:52.868,1789337272.8688667,-31
2026-09-13 19:07:52.876,1789337272.876559,-21
2026-09-13 19:07:52.884,1789337272.8842514,-29
2026-09-13 19:07:52.891,1789337272.8919437,-48
2026-09-13 19:07:52.899,1789337272.899636,-70
2026-09-13 19:07:52.907,1789337272.9073281,-82
2026-09-13 19:07:52.915,1789337272.9150205,-82
2026-09-13 19:07:52.922,1789337272.9227128,-84
2026-09-13 19:07:52.930,1789337272.9304051,-87
2026-09-13 19:07:52.938,1789337272.9380975,-84
2026-09-13 19:07:52.945,1789337272.9457898,-80
2026-09-13 19:07:52.953,1789337272.9534822,-87
2026-09-13 19:07:52.961,1789337272.9611745,-104
2026-09-13 19:07:52.968,1789337272.9688666,-77
2026-09-13 19:07:52.976,1789337272.976559,77
2026-09-13 19:07:52.984,1789337272.9842513,368
2026-09-13 19:07:52.991,1789337272.9919436,632
2026-09-13 19:07:52.999,1789337272.999636,402
2026-09-13 19:07:53.007,1789337273.0073283,-281
2026-09-13 19:07:53.015,1789337273.0150206,-475
2026-09-13 19:07:53.022,1789337273.022713,-116
2026-09-13 19:07:53.030,1789337273.030405,-33
2026-09-13 19:07:53.038,1789337273.0380974,-160
2026-09-13 19:07:53.045,1789337273.0457897,-109
2026-09-13 19:07:53.053,1789337273.053482,-65
2026-09-13 19:07:53.061,1789337273.0611744,-111
2026-09-13 19:07:53.068,1789337273.0688667,-104
2026-09-13 19:07:53.076,1789337273.076559,-77
2026-09-13 19:07:53.084,1789337273.0842514,-82
2026-09-13 19:07:53.091,1789337273.0919435,-77
2026-09-13 19:07:53.099,1789337273.0996358,-58
2026-09-13 19:07:53.107,1789337273.1073282,-58
2026-09-13 19:07:53.115,1789337273.1150205,-55
2026-09-13 19:07:53.122,1789337273.1227129,-43
2026-09-13 19:07:53.130,1789337273.1304052,-33
2026-09-13 19:07:53.138,1789337273.1380975,-26
2026-09-13 19:07:53.145,1789337273.1457899,-21
2026-09-13 19:07:53.153,1789337273.153482,-14
2026-09-13 19:07:53.161,1789337273.1611743,-4
2026-09-13 19:07:53.168,1789337273.1688666,2
2026-09-13 19:07:53.176,1789337273.176559,4
2026-09-13 19:07:53.184,1789337273.1842513,7
2026-09-13 19:07:53.191,1789337273.1919436,2
2026-09-13 19:07:53.199,1789337273.199636,-2
2026-09-13 19:07:53.207,1789337273.2073283,-2
2026-09-13 19:07:53.215,1789337273.2150204,0
2026-09-13 19:07:53.222,1789337273.2227128,-4
2026-09-13 19:07:53.230,1789337273.230405,-24
2026-09-13 19:07:53.238,1789337273.2380974,-53
2026-09-13 19:07:53.245,1789337273.2457898,-80
2026-09-13 19:07:53.253,1789337273.253482,-101
2026-09-13 19:07:53.261,1789337273.2611744,-118
2026-09-13 19:07:53.268,1789337273.2688668,-123
2026-09-13 19:07:53.276,1789337273.276559,-123
2026-09-13 19:07:53.284,1789337273.2842512,-126
2026-09-13 19:07:53.291,1789337273.2919436,-123
2026-09-13 19:07:53.299,1789337273.299636,-118
2026-09-13 19:07:53.306,1789337273.3067565,-111
2026-09-13 19:07:53.314,1789337273.3144488,-101
2026-09-13 19:07:53.322,1789337273.3221412,-97
2026-09-13 19:07:53.329,1789337273.3298335,-94
2026-09-13 19:07:53.337,1789337273.3375258,-87
2026-09-13 19:07:53.345,1789337273.345218,-82
2026-09-13 19:07:53.352,1789337273.3529103,-82
2026-09-13 19:07:53.360,1789337273.3606026,-84
2026-09-13 19:07:53.368,1789337273.368295,-87
2026-09-13 19:07:53.375,1789337273.3759873,-89
2026-09-13 19:07:53.383,1789337273.3836796,-89
2026-09-13 19:07:53.391,1789337273.391372,-84
2026-09-13 19:07:53.399,1789337273.3990643,-77
2026-09-13 19:07:53.406,1789337273.4067564,-67
2026-09-13 19:07:53.414,1789337273.4144487,-43
2026-09-13 19:07:53.422,1789337273.422141,-21
2026-09-13 19:07:53.429,1789337273.4298334,-21
2026-09-13 19:07:53.437,1789337273.4375257,-43
2026-09-13 19:07:53.445,1789337273.445218,-63
2026-09-13 19:07:53.452,1789337273.4529104,-75
2026-09-13 19:07:53.460,1789337273.4606028,-84
2026-09-13 19:07:53.468,1789337273.4682949,-82
2026-09-13 19:07:53.475,1789337273.4759872,-77
2026-09-13 19:07:53.483,1789337273.4836795,-77
2026-09-13 19:07:53.491,1789337273.4913719,-77
2026-09-13 19:07:53.499,1789337273.4990642,-80
2026-09-13 19:07:53.506,1789337273.5067565,-92
2026-09-13 19:07:53.514,1789337273.514449,-87
2026-09-13 19:07:53.522,1789337273.5221412,9
2026-09-13 19:07:53.529,1789337273.5298333,242
2026-09-13 19:07:53.537,1789337273.5375257,596
2026-09-13 19:07:53.545,1789337273.545218,712
2026-09-13 19:07:53.552,1789337273.5529103,152
2026-09-13 19:07:53.560,1789337273.5606027,-417
2026-09-13 19:07:53.568,1789337273.568295,-247
2026-09-13 19:07:53.575,1789337273.5759873,2
2026-09-13 19:07:53.583,1789337273.5836797,-116
2026-09-13 19:07:53.591,1789337273.5913718,-157
2026-09-13 19:07:53.599,1789337273.599064,-72
2026-09-13 19:07:53.606,1789337273.6067564,-87
2026-09-13 19:07:53.614,1789337273.6144488,-113
2026-09-13 19:07:53.622,1789337273.6221411,-82
2026-09-13 19:07:53.629,1789337273.6298335,-75
2026-09-13 19:07:53.637,1789337273.6375258,-80
2026-09-13 19:07:53.645,1789337273.6452181,-65
2026-09-13 19:07:53.652,1789337273.6529102,-50
2026-09-13 19:07:53.660,1789337273.6606026,-50
2026-09-13 19:07:53.668,1789337273.668295,-46
2026-09-13 19:07:53.675,1789337273.6759872,-33
2026-09-13 19:07:53.683,1789337273.6836796,-26
2026-09-13 19:07:53.691,1789337273.691372,-21
2026-09-13 19:07:53.699,1789337273.6990643,-16
2026-09-13 19:07:53.706,1789337273.7067566,-12
2026-09-13 19:07:53.714,1789337273.7144487,-9
2026-09-13 19:07:53.722,1789337273.722141,-4
2026-09-13 19:07:53.729,1789337273.7298334,-7
2026-09-13 19:07:53.737,1789337273.7375257,-16
2026-09-13 19:07:53.745,1789337273.745218,-24
2026-09-13 19:07:53.752,1789337273.7529104,-21
2026-09-13 19:07:53.760,1789337273.7606027,-26
2026-09-13 19:07:53.768,1789337273.768295,-29
2026-09-13 19:07:53.775,1789337273.7759871,-29
2026-09-13 19:07:53.783,1789337273.7836795,-43
2026-09-13 19:07:53.791,1789337273.7913718,-70
2026-09-13 19:07:53.799,1789337273.7990642,-87
2026-09-13 19:07:53.806,1789337273.8067565,-94
2026-09-13 19:07:53.814,1789337273.8144488,-104
2026-09-13 19:07:53.822,1789337273.8221412,-109
2026-09-13 19:07:53.829,1789337273.8298335,-109
2026-09-13 19:07:53.837,1789337273.8375258,-106
2026-09-13 19:07:53.845,1789337273.845218,-101
2026-09-13 19:07:53.852,1789337273.8529103,-97
2026-09-13 19:07:53.860,1789337273.8606026,-92
2026-09-13 19:07:53.867,1789337273.8676825,-87
2026-09-13 19:07:53.875,1789337273.8753748,-82
2026-09-13 19:07:53.883,1789337273.8830671,-80
2026-09-13 19:07:53.890,1789337273.8907595,-77
2026-09-13 19:07:53.898,1789337273.8984518,-72
2026-09-13 19:07:53.906,1789337273.906144,-72
2026-09-13 19:07:53.913,1789337273.9138362,-80
2026-09-13 19:07:53.921,1789337273.9215286,-84
2026-09-13 19:07:53.929,1789337273.929221,-84
2026-09-13 19:07:53.936,1789337273.9369133,-77
2026-09-13 19:07:53.944,1789337273.9446056,-70
2026-09-13 19:07:53.952,1789337273.952298,-60
2026-09-13 19:07:53.959,1789337273.9599903,-33
2026-09-13 19:07:53.967,1789337273.9676824,-14
2026-09-13 19:07:53.975,1789337273.9753747,-19
2026-09-13 19:07:53.983,1789337273.983067,-33
2026-09-13 19:07:53.990,1789337273.9907594,-50
2026-09-13 19:07:53.998,1789337273.9984517,-70
2026-09-13 19:07:54.006,1789337274.006144,-82
2026-09-13 19:07:54.013,1789337274.0138364,-84
2026-09-13 19:07:54.021,1789337274.0215287,-84
2026-09-13 19:07:54.029,1789337274.0292208,-84
2026-09-13 19:07:54.036,1789337274.0369132,-80
2026-09-13 19:07:54.044,1789337274.0446055,-82
2026-09-13 19:07:54.052,1789337274.0522978,-92
2026-09-13 19:07:54.059,1789337274.0599902,-89
2026-09-13 19:07:54.067,1789337274.0676825,-21
2026-09-13 19:07:54.075,1789337274.0753748,150
2026-09-13 19:07:54.083,1789337274.0830672,458
2026-09-13 19:07:54.090,1789337274.0907593,635
2026-09-13 19:07:54.098,1789337274.0984516,210
2026-09-13 19:07:54.106,1789337274.106144,-356
2026-09-13 19:07:54.113,1789337274.1138363,-281
2026-09-13 19:07:54.121,1789337274.1215286,-16
2026-09-13 19:07:54.129,1789337274.129221,-82
2026-09-13 19:07:54.136,1789337274.1369133,-135
2026-09-13 19:07:54.144,1789337274.1446056,-63
2026-09-13 19:07:54.152,1789337274.1522977,-67
2026-09-13 19:07:54.159,1789337274.15999,-99
2026-09-13 19:07:54.167,1789337274.1676824,-72
2026-09-13 19:07:54.175,1789337274.1753747,-58
2026-09-13 19:07:54.183,1789337274.183067,-65
2026-09-13 19:07:54.190,1789337274.1907594,-55
2026-09-13 19:07:54.198,1789337274.1984518,-36
2026-09-13 19:07:54.206,1789337274.206144,-31
2026-09-13 19:07:54.213,1789337274.2138362,-29
2026-09-13 19:07:54.221,1789337274.2215285,-19
2026-09-13 19:07:54.229,1789337274.2292209,-14
2026-09-13 19:07:54.236,1789337274.2369132,-14
2026-09-13 19:07:54.244,1789337274.2446055,-4
2026-09-13 19:07:54.252,1789337274.2522979,4
2026-09-13 19:07:54.259,1789337274.2599902,9
2026-09-13 19:07:54.267,1789337274.2676826,16
2026-09-13 19:07:54.275,1789337274.2753747,21
2026-09-13 19:07:54.283,1789337274.283067,16
2026-09-13 19:07:54.290,1789337274.2907593,12
2026-09-13 19:07:54.298,1789337274.2984517,12
2026-09-13 19:07:54.306,1789337274.306144,14
2026-09-13 19:07:54.313,1789337274.3138363,16
2026-09-13 19:07:54.321,1789337274.3215287,12
2026-09-13 19:07:54.329,1789337274.329221,-12
2026-09-13 19:07:54.336,1789337274.336913,-41
2026-09-13 19:07:54.344,1789337274.3446054,-63
2026-09-13 19:07:54.352,1789337274.3522978,-80
2026-09-13 19:07:54.359,1789337274.3599901,-94
2026-09-13 19:07:54.367,1789337274.3676825,-97
2026-09-13 19:07:54.375,1789337274.3753748,-94
2026-09-13 19:07:54.383,1789337274.3830671,-97
2026-09-13 19:07:54.390,1789337274.3907595,-97
2026-09-13 19:07:54.398,1789337274.3984518,-89
2026-09-13 19:07:54.406,1789337274.406144,-82
2026-09-13 19:07:54.413,1789337274.4138362,-77
2026-09-13 19:07:54.421,1789337274.4215286,-77
2026-09-13 19:07:54.428,1789337274.4286594,-77
2026-09-13 19:07:54.436,1789337274.4363518,-75
2026-09-13 19:07:54.444,1789337274.444044,-70
2026-09-13 19:07:54.451,1789337274.4517365,-65
2026-09-13 19:07:54.459,1789337274.4594288,-70
2026-09-13 19:07:54.467,1789337274.467121,-80
2026-09-13 19:07:54.474,1789337274.4748132,-80
2026-09-13 19:07:54.482,1789337274.4825056,-70
2026-09-13 19:07:54.490,1789337274.490198,-58
2026-09-13 19:07:54.497,1789337274.4978902,-41
2026-09-13 19:07:54.505,1789337274.5055826,-21
2026-09-13 19:07:54.513,1789337274.513275,-4
2026-09-13 19:07:54.520,1789337274.5209672,-2
2026-09-13 19:07:54.528,1789337274.5286593,-16
2026-09-13 19:07:54.536,1789337274.5363517,-41
2026-09-13 19:07:54.544,1789337274.544044,-65
2026-09-13 19:07:54.551,1789337274.5517364,-75
2026-09-13 19:07:54.559,1789337274.5594287,-75
2026-09-13 19:07:54.567,1789337274.567121,-77
2026-09-13 19:07:54.574,1789337274.5748134,-77
2026-09-13 19:07:54.582,1789337274.5825057,-75
2026-09-13 19:07:54.590,1789337274.5901978,-80
2026-09-13 19:07:54.597,1789337274.5978901,-89
2026-09-13 19:07:54.605,1789337274.6055825,-94
2026-09-13 19:07:54.613,1789337274.6132748,-36
2026-09-13 19:07:54.620,1789337274.6209671,116
2026-09-13 19:07:54.628,1789337274.6286595,378
2026-09-13 19:07:54.636,1789337274.6363518,545
2026-09-13 19:07:54.644,1789337274.6440442,198
2026-09-13 19:07:54.651,1789337274.6517363,-322
2026-09-13 19:07:54.659,1789337274.6594286,-291
2026-09-13 19:07:54.667,1789337274.667121,-38
2026-09-13 19:07:54.674,1789337274.6748133,-65
2026-09-13 19:07:54.682,1789337274.6825056,-123
2026-09-13 19:07:54.690,1789337274.690198,-72
2026-09-13 19:07:54.697,1789337274.6978903,-72
2026-09-13 19:07:54.705,1789337274.7055826,-92
2026-09-13 19:07:54.713,1789337274.7132747,-65
2026-09-13 19:07:54.720,1789337274.720967,-46
2026-09-13 19:07:54.728,1789337274.7286594,-46
2026-09-13 19:07:54.736,1789337274.7363517,-41
2026-09-13 19:07:54.744,1789337274.744044,-36
2026-09-13 19:07:54.751,1789337274.7517364,-33
2026-09-13 19:07:54.759,1789337274.7594287,-29
2026-09-13 19:07:54.767,1789337274.767121,-16
2026-09-13 19:07:54.774,1789337274.7748132,-4
2026-09-13 19:07:54.782,1789337274.7825055,7
2026-09-13 19:07:54.790,1789337274.7901978,16
2026-09-13 19:07:54.797,1789337274.7978902,21
2026-09-13 19:07:54.805,1789337274.8055825,29
2026-09-13 19:07:54.813,1789337274.8132749,38
2026-09-13 19:07:54.820,1789337274.8209672,46
2026-09-13 19:07:54.828,1789337274.8286595,53
2026-09-13 19:07:54.836,1789337274.8363516,55
2026-09-13 19:07:54.844,1789337274.844044,58
2026-09-13 19:07:54.851,1789337274.8517363,55
2026-09-13 19:07:54.859,1789337274.8594286,53
2026-09-13 19:07:54.867,1789337274.867121,48
2026-09-13 19:07:54.874,1789337274.8748133,26
2026-09-13 19:07:54.882,1789337274.8825057,-9
2026-09-13 19:07:54.890,1789337274.890198,-43
2026-09-13 19:07:54.897,1789337274.89789,-63
2026-09-13 19:07:54.905,1789337274.9055824,-70
2026-09-13 19:07:54.913,1789337274.9132748,-77
2026-09-13 19:07:54.920,1789337274.920967,-80
2026-09-13 19:07:54.928,1789337274.9286594,-84
2026-09-13 19:07:54.936,1789337274.9363518,-80
2026-09-13 19:07:54.944,1789337274.944044,-70
2026-09-13 19:07:54.951,1789337274.9517365,-63
2026-09-13 19:07:54.959,1789337274.9594288,-65
2026-09-13 19:07:54.967,1789337274.967121,-65
2026-09-13 19:07:54.974,1789337274.9748132,-60
2026-09-13 19:07:54.982,1789337274.9825056,-55
2026-09-13 19:07:54.989,1789337274.9896054,-48
2026-09-13 19:07:54.997,1789337274.9972978,-50
2026-09-13 19:07:55.004,1789337275.00499,-55
2026-09-13 19:07:55.012,1789337275.0126824,-63
2026-09-13 19:07:55.020,1789337275.0203748,-63
2026-09-13 19:07:55.028,1789337275.0280669,-55
2026-09-13 19:07:55.035,1789337275.0357592,-38
2026-09-13 19:07:55.043,1789337275.0434515,-19
2026-09-13 19:07:55.051,1789337275.051144,7
2026-09-13 19:07:55.058,1789337275.0588362,16
2026-09-13 19:07:55.066,1789337275.0665286,4
2026-09-13 19:07:55.074,1789337275.074221,-12
2026-09-13 19:07:55.081,1789337275.0819132,-26
2026-09-13 19:07:55.089,1789337275.0896053,-53
2026-09-13 19:07:55.097,1789337275.0972977,-67
2026-09-13 19:07:55.104,1789337275.10499,-63
2026-09-13 19:07:55.112,1789337275.1126823,-58
2026-09-13 19:07:55.120,1789337275.1203747,-60
2026-09-13 19:07:55.128,1789337275.128067,-58
2026-09-13 19:07:55.135,1789337275.1357594,-55
2026-09-13 19:07:55.143,1789337275.1434517,-65
2026-09-13 19:07:55.151,1789337275.1511438,-41
2026-09-13 19:07:55.158,1789337275.1588361,87
2026-09-13 19:07:55.166,1789337275.1665285,346
2026-09-13 19:07:55.174,1789337275.1742208,625
2026-09-13 19:07:55.181,1789337275.1819131,487
2026-09-13 19:07:55.189,1789337275.1896055,-174
2026-09-13 19:07:55.197,1789337275.1972978,-475
2026-09-13 19:07:55.204,1789337275.2049901,-155
2026-09-13 19:07:55.212,1789337275.2126822,-12
2026-09-13 19:07:55.220,1789337275.2203746,-116
2026-09-13 19:07:55.228,1789337275.228067,-89
2026-09-13 19:07:55.235,1789337275.2357593,-46
2026-09-13 19:07:55.243,1789337275.2434516,-65
2026-09-13 19:07:55.251,1789337275.251144,-55
2026-09-13 19:07:55.258,1789337275.2588363,-36
2026-09-13 19:07:55.266,1789337275.2665286,-46
2026-09-13 19:07:55.274,1789337275.2742207,-43
2026-09-13 19:07:55.281,1789337275.281913,-29
2026-09-13 19:07:55.289,1789337275.2896054,-14
2026-09-13 19:07:55.297,1789337275.2972977,-12
2026-09-13 19:07:55.304,1789337275.30499,-2
2026-09-13 19:07:55.312,1789337275.3126824,9
2026-09-13 19:07:55.320,1789337275.3203747,16
2026-09-13 19:07:55.328,1789337275.328067,26
2026-09-13 19:07:55.335,1789337275.3357592,48
2026-09-13 19:07:55.343,1789337275.3434515,60
2026-09-13 19:07:55.351,1789337275.3511438,60
2026-09-13 19:07:55.358,1789337275.3588362,72
2026-09-13 19:07:55.366,1789337275.3665285,87
2026-09-13 19:07:55.374,1789337275.3742208,87
2026-09-13 19:07:55.381,1789337275.3819132,82
2026-09-13 19:07:55.389,1789337275.3896055,89
2026-09-13 19:07:55.397,1789337275.3972976,94
2026-09-13 19:07:55.404,1789337275.40499,80
2026-09-13 19:07:55.412,1789337275.4126823,48
2026-09-13 19:07:55.420,1789337275.4203746,14
2026-09-13 19:07:55.428,1789337275.428067,-19
2026-09-13 19:07:55.435,1789337275.4357593,-60
2026-09-13 19:07:55.443,1789337275.4434516,-97
2026-09-13 19:07:55.451,1789337275.451144,-111
2026-09-13 19:07:55.458,1789337275.458836,-111
2026-09-13 19:07:55.466,1789337275.4665284,-113
2026-09-13 19:07:55.474,1789337275.4742208,-116
2026-09-13 19:07:55.481,1789337275.481913,-111
2026-09-13 19:07:55.489,1789337275.4896054,-99
2026-09-13 19:07:55.497,1789337275.4972978,-89
2026-09-13 19:07:55.504,1789337275.50499,-84
2026-09-13 19:07:55.512,1789337275.5126824,-77
2026-09-13 19:07:55.520,1789337275.5203748,-77
2026-09-13 19:07:55.528,1789337275.5280669,-80
2026-09-13 19:07:55.535,1789337275.5357592,-82
2026-09-13 19:07:55.543,1789337275.5434515,-92
2026-09-13 19:07:55.550,1789337275.5505517,-87
2026-09-13 19:07:55.558,1789337275.558244,-67
2026-09-13 19:07:55.565,1789337275.5659363,-58
2026-09-13 19:07:55.573,1789337275.5736287,-46
2026-09-13 19:07:55.581,1789337275.581321,-24
2026-09-13 19:07:55.589,1789337275.589013,-14
2026-09-13 19:07:55.596,1789337275.5967054,-19
2026-09-13 19:07:55.604,1789337275.6043978,-24
2026-09-13 19:07:55.612,1789337275.61209,-58
2026-09-13 19:07:55.619,1789337275.6197824,-87
2026-09-13 19:07:55.627,1789337275.6274748,-70
2026-09-13 19:07:55.635,1789337275.6351671,-53
2026-09-13 19:07:55.642,1789337275.6428595,-72
2026-09-13 19:07:55.650,1789337275.6505516,-82
2026-09-13 19:07:55.658,1789337275.658244,-72
2026-09-13 19:07:55.665,1789337275.6659362,-77
2026-09-13 19:07:55.673,1789337275.6736286,-87
2026-09-13 19:07:55.681,1789337275.681321,-80
2026-09-13 19:07:55.689,1789337275.6890132,2
2026-09-13 19:07:55.696,1789337275.6967056,220
2026-09-13 19:07:55.704,1789337275.704398,535
2026-09-13 19:07:55.712,1789337275.71209,630
2026-09-13 19:07:55.719,1789337275.7197824,111
2026-09-13 19:07:55.727,1789337275.7274747,-468
2026-09-13 19:07:55.735,1789337275.735167,-320
2026-09-13 19:07:55.742,1789337275.7428594,0
2026-09-13 19:07:55.750,1789337275.7505517,-77
2026-09-13 19:07:55.758,1789337275.758244,-138
2026-09-13 19:07:55.765,1789337275.7659364,-46
2026-09-13 19:07:55.773,1789337275.7736285,-55
2026-09-13 19:07:55.781,1789337275.7813208,-92
2026-09-13 19:07:55.789,1789337275.7890131,-60
2026-09-13 19:07:55.796,1789337275.7967055,-50
2026-09-13 19:07:55.804,1789337275.8043978,-63
2026-09-13 19:07:55.812,1789337275.8120902,-46
2026-09-13 19:07:55.819,1789337275.8197825,-31
2026-09-13 19:07:55.827,1789337275.8274748,-29
2026-09-13 19:07:55.835,1789337275.835167,-19
2026-09-13 19:07:55.842,1789337275.8428593,-9
2026-09-13 19:07:55.850,1789337275.8505516,-4
2026-09-13 19:07:55.858,1789337275.858244,2
2026-09-13 19:07:55.865,1789337275.8659363,16
2026-09-13 19:07:55.873,1789337275.8736286,29
2026-09-13 19:07:55.881,1789337275.881321,38
2026-09-13 19:07:55.889,1789337275.8890133,43
2026-09-13 19:07:55.896,1789337275.8967054,43
2026-09-13 19:07:55.904,1789337275.9043977,48
2026-09-13 19:07:55.912,1789337275.91209,50
2026-09-13 19:07:55.919,1789337275.9197824,50
2026-09-13 19:07:55.927,1789337275.9274747,43
2026-09-13 19:07:55.935,1789337275.935167,36
2026-09-13 19:07:55.942,1789337275.9428594,19
2026-09-13 19:07:55.950,1789337275.9505517,-14
2026-09-13 19:07:55.958,1789337275.9582438,-55
2026-09-13 19:07:55.965,1789337275.9659362,-89
2026-09-13 19:07:55.973,1789337275.9736285,-111
2026-09-13 19:07:55.981,1789337275.9813209,-123
2026-09-13 19:07:55.989,1789337275.9890132,-135
2026-09-13 19:07:55.996,1789337275.9967055,-143
2026-09-13 19:07:56.004,1789337276.0043979,-145
2026-09-13 19:07:56.012,1789337276.0120902,-143
2026-09-13 19:07:56.019,1789337276.0197823,-135
2026-09-13 19:07:56.027,1789337276.0274746,-126
2026-09-13 19:07:56.035,1789337276.035167,-118
2026-09-13 19:07:56.042,1789337276.0428593,-113
2026-09-13 19:07:56.050,1789337276.0505517,-109
2026-09-13 19:07:56.058,1789337276.058244,-106
2026-09-13 19:07:56.065,1789337276.0659363,-111
2026-09-13 19:07:56.073,1789337276.0736287,-116
2026-09-13 19:07:56.081,1789337276.081321,-111
2026-09-13 19:07:56.089,1789337276.089013,-104
2026-09-13 19:07:56.096,1789337276.0967054,-99
2026-09-13 19:07:56.104,1789337276.1043978,-89
2026-09-13 19:07:56.111,1789337276.1115286,-70
2026-09-13 19:07:56.119,1789337276.119221,-53
2026-09-13 19:07:56.126,1789337276.1269133,-50
2026-09-13 19:07:56.134,1789337276.1346056,-67
2026-09-13 19:07:56.142,1789337276.142298,-94
2026-09-13 19:07:56.149,1789337276.14999,-111
2026-09-13 19:07:56.157,1789337276.1576824,-111
2026-09-13 19:07:56.165,1789337276.1653748,-113
2026-09-13 19:07:56.173,1789337276.173067,-113
2026-09-13 19:07:56.180,1789337276.1807594,-111
2026-09-13 19:07:56.188,1789337276.1884518,-109
2026-09-13 19:07:56.196,1789337276.196144,-118
2026-09-13 19:07:56.203,1789337276.2038364,-130
2026-09-13 19:07:56.211,1789337276.2115285,-113
2026-09-13 19:07:56.219,1789337276.2192209,-7
2026-09-13 19:07:56.226,1789337276.2269132,235
2026-09-13 19:07:56.234,1789337276.2346056,569
2026-09-13 19:07:56.242,1789337276.242298,548
2026-09-13 19:07:56.249,1789337276.2499902,-94
2026-09-13 19:07:56.257,1789337276.2576826,-502
2026-09-13 19:07:56.265,1789337276.265375,-206
2026-09-13 19:07:56.273,1789337276.273067,-21
2026-09-13 19:07:56.280,1789337276.2807593,-160
2026-09-13 19:07:56.288,1789337276.2884517,-155
2026-09-13 19:07:56.296,1789337276.296144,-84
2026-09-13 19:07:56.303,1789337276.3038363,-121
2026-09-13 19:07:56.311,1789337276.3115287,-130
2026-09-13 19:07:56.319,1789337276.319221,-94
2026-09-13 19:07:56.326,1789337276.3269134,-94
2026-09-13 19:07:56.334,1789337276.3346055,-99
2026-09-13 19:07:56.342,1789337276.3422978,-80
2026-09-13 19:07:56.349,1789337276.3499901,-70
2026-09-13 19:07:56.357,1789337276.3576825,-70
2026-09-13 19:07:56.365,1789337276.3653748,-60
2026-09-13 19:07:56.373,1789337276.3730671,-50
2026-09-13 19:07:56.380,1789337276.3807595,-46
2026-09-13 19:07:56.388,1789337276.3884518,-41
2026-09-13 19:07:56.396,1789337276.396144,-29
2026-09-13 19:07:56.403,1789337276.4038363,-21
2026-09-13 19:07:56.411,1789337276.4115286,-21
2026-09-13 19:07:56.419,1789337276.419221,-19
2026-09-13 19:07:56.426,1789337276.4269133,-19
2026-09-13 19:07:56.434,1789337276.4346056,-24
2026-09-13 19:07:56.442,1789337276.442298,-29
2026-09-13 19:07:56.449,1789337276.4499903,-31
2026-09-13 19:07:56.457,1789337276.4576824,-31
2026-09-13 19:07:56.465,1789337276.4653747,-31
2026-09-13 19:07:56.473,1789337276.473067,-43
2026-09-13 19:07:56.480,1789337276.4807594,-67
2026-09-13 19:07:56.488,1789337276.4884517,-92
2026-09-13 19:07:56.496,1789337276.496144,-109
2026-09-13 19:07:56.503,1789337276.5038364,-123
2026-09-13 19:07:56.511,1789337276.5115287,-128
2026-09-13 19:07:56.519,1789337276.5192208,-128
2026-09-13 19:07:56.526,1789337276.5269132,-130
2026-09-13 19:07:56.534,1789337276.5346055,-126
2026-09-13 19:07:56.542,1789337276.5422978,-116
2026-09-13 19:07:56.549,1789337276.5499902,-109
2026-09-13 19:07:56.557,1789337276.5576825,-104
2026-09-13 19:07:56.565,1789337276.5653749,-99
2026-09-13 19:07:56.573,1789337276.5730672,-92
2026-09-13 19:07:56.580,1789337276.5807593,-87
2026-09-13 19:07:56.588,1789337276.5884516,-87
2026-09-13 19:07:56.596,1789337276.596144,-92
2026-09-13 19:07:56.603,1789337276.6038363,-97
2026-09-13 19:07:56.611,1789337276.6115286,-94
2026-09-13 19:07:56.619,1789337276.619221,-87
2026-09-13 19:07:56.626,1789337276.6269133,-77
2026-09-13 19:07:56.634,1789337276.6346056,-60
2026-09-13 19:07:56.642,1789337276.642298,-33
2026-09-13 19:07:56.649,1789337276.64999,-24
2026-09-13 19:07:56.657,1789337276.6576824,-36
2026-09-13 19:07:56.665,1789337276.6653748,-58
2026-09-13 19:07:56.672,1789337276.6724749,-80
2026-09-13 19:07:56.680,1789337276.6801672,-92
2026-09-13 19:07:56.687,1789337276.6878595,-97
2026-09-13 19:07:56.695,1789337276.6955519,-97
2026-09-13 19:07:56.703,1789337276.7032442,-92
2026-09-13 19:07:56.710,1789337276.7109363,-89
2026-09-13 19:07:56.718,1789337276.7186286,-87
2026-09-13 19:07:56.726,1789337276.726321,-97
2026-09-13 19:07:56.734,1789337276.7340133,-109
2026-09-13 19:07:56.741,1789337276.7417057,-55
2026-09-13 19:07:56.749,1789337276.749398,106
2026-09-13 19:07:56.757,1789337276.7570903,414
2026-09-13 19:07:56.764,1789337276.7647827,686
2026-09-13 19:07:56.772,1789337276.7724748,378
2026-09-13 19:07:56.780,1789337276.780167,-298
2026-09-13 19:07:56.787,1789337276.7878594,-373
2026-09-13 19:07:56.795,1789337276.7955518,-46
2026-09-13 19:07:56.803,1789337276.803244,-58
2026-09-13 19:07:56.810,1789337276.8109365,-164
2026-09-13 19:07:56.818,1789337276.8186288,-97
2026-09-13 19:07:56.826,1789337276.8263211,-77
2026-09-13 19:07:56.834,1789337276.8340132,-116
2026-09-13 19:07:56.841,1789337276.8417056,-94
2026-09-13 19:07:56.849,1789337276.849398,-67
2026-09-13 19:07:56.857,1789337276.8570902,-77
2026-09-13 19:07:56.864,1789337276.8647826,-72
2026-09-13 19:07:56.872,1789337276.872475,-53
2026-09-13 19:07:56.880,1789337276.8801672,-46
2026-09-13 19:07:56.887,1789337276.8878596,-46
2026-09-13 19:07:56.895,1789337276.8955517,-38
2026-09-13 19:07:56.903,1789337276.903244,-26
2026-09-13 19:07:56.910,1789337276.9109364,-24
2026-09-13 19:07:56.918,1789337276.9186287,-21
2026-09-13 19:07:56.926,1789337276.926321,-12
2026-09-13 19:07:56.934,1789337276.9340134,-7
2026-09-13 19:07:56.941,1789337276.9417057,-4
2026-09-13 19:07:56.949,1789337276.949398,-4
2026-09-13 19:07:56.957,1789337276.9570901,-7
2026-09-13 19:07:56.964,1789337276.9647825,-12
2026-09-13 19:07:56.972,1789337276.9724748,-12
2026-09-13 19:07:56.980,1789337276.9801672,-7
2026-09-13 19:07:56.987,1789337276.9878595,-7
2026-09-13 19:07:56.995,1789337276.9955518,-14
2026-09-13 19:07:57.003,1789337277.0032442,-31
2026-09-13 19:07:57.010,1789337277.0109365,-48
2026-09-13 19:07:57.018,1789337277.0186286,-65
2026-09-13 19:07:57.026,1789337277.026321,-77
2026-09-13 19:07:57.034,1789337277.0340133,-89
2026-09-13 19:07:57.041,1789337277.0417056,-92
2026-09-13 19:07:57.049,1789337277.049398,-92
2026-09-13 19:07:57.057,1789337277.0570903,-89
2026-09-13 19:07:57.064,1789337277.0647826,-84
2026-09-13 19:07:57.072,1789337277.072475,-80
2026-09-13 19:07:57.080,1789337277.080167,-72
2026-09-13 19:07:57.087,1789337277.0878594,-65
2026-09-13 19:07:57.095,1789337277.0955517,-60
2026-09-13 19:07:57.103,1789337277.103244,-63
2026-09-13 19:07:57.110,1789337277.1109364,-65
2026-09-13 19:07:57.118,1789337277.1186287,-60
2026-09-13 19:07:57.126,1789337277.126321,-60
2026-09-13 19:07:57.134,1789337277.1340134,-70
2026-09-13 19:07:57.141,1789337277.1417055,-65
2026-09-13 19:07:57.149,1789337277.1493979,-53
2026-09-13 19:07:57.157,1789337277.1570902,-43
2026-09-13 19:07:57.164,1789337277.1647825,-29
2026-09-13 19:07:57.172,1789337277.1724749,-9
2026-09-13 19:07:57.180,1789337277.1801672,4
2026-09-13 19:07:57.187,1789337277.1878595,0
2026-09-13 19:07:57.195,1789337277.1955519,-14
2026-09-13 19:07:57.203,1789337277.2032442,-33
2026-09-13 19:07:57.210,1789337277.2109363,-55
2026-09-13 19:07:57.218,1789337277.2186286,-65
2026-09-13 19:07:57.226,1789337277.226321,-65
2026-09-13 19:07:57.233,1789337277.2334213,-63
2026-09-13 19:07:57.241,1789337277.2411137,-63
2026-09-13 19:07:57.248,1789337277.248806,-63
2026-09-13 19:07:57.256,1789337277.2564983,-67
2026-09-13 19:07:57.264,1789337277.2641907,-77
2026-09-13 19:07:57.271,1789337277.2718828,-60
2026-09-13 19:07:57.279,1789337277.279575,21
2026-09-13 19:07:57.287,1789337277.2872674,218
2026-09-13 19:07:57.294,1789337277.2949598,518
2026-09-13 19:07:57.302,1789337277.3026521,538
2026-09-13 19:07:57.310,1789337277.3103445,0
2026-09-13 19:07:57.318,1789337277.3180368,-373
2026-09-13 19:07:57.325,1789337277.3257291,-157
2026-09-13 19:07:57.333,1789337277.3334212,4
2026-09-13 19:07:57.341,1789337277.3411136,-87
2026-09-13 19:07:57.348,1789337277.348806,-87
2026-09-13 19:07:57.356,1789337277.3564982,-38
2026-09-13 19:07:57.364,1789337277.3641906,-65
2026-09-13 19:07:57.371,1789337277.371883,-72
2026-09-13 19:07:57.379,1789337277.3795753,-43
2026-09-13 19:07:57.387,1789337277.3872676,-33
2026-09-13 19:07:57.394,1789337277.3949597,-36
2026-09-13 19:07:57.402,1789337277.402652,-24
2026-09-13 19:07:57.410,1789337277.4103444,-12
2026-09-13 19:07:57.418,1789337277.4180367,-9
2026-09-13 19:07:57.425,1789337277.425729,-2
2026-09-13 19:07:57.433,1789337277.4334214,4
2026-09-13 19:07:57.441,1789337277.4411137,14
2026-09-13 19:07:57.448,1789337277.448806,21
2026-09-13 19:07:57.456,1789337277.4564981,29
2026-09-13 19:07:57.464,1789337277.4641905,36
2026-09-13 19:07:57.471,1789337277.4718828,41
2026-09-13 19:07:57.479,1789337277.4795752,48
2026-09-13 19:07:57.487,1789337277.4872675,48
2026-09-13 19:07:57.494,1789337277.4949598,43
2026-09-13 19:07:57.502,1789337277.5026522,41
2026-09-13 19:07:57.510,1789337277.5103445,43
2026-09-13 19:07:57.518,1789337277.5180366,50
2026-09-13 19:07:57.525,1789337277.525729,55
2026-09-13 19:07:57.533,1789337277.5334213,41
2026-09-13 19:07:57.541,1789337277.5411136,12
2026-09-13 19:07:57.548,1789337277.548806,-16
2026-09-13 19:07:57.556,1789337277.5564983,-41
2026-09-13 19:07:57.564,1789337277.5641906,-60
2026-09-13 19:07:57.571,1789337277.571883,-67
2026-09-13 19:07:57.579,1789337277.579575,-65
2026-09-13 19:07:57.587,1789337277.5872674,-63
2026-09-13 19:07:57.594,1789337277.5949597,-58
2026-09-13 19:07:57.602,1789337277.602652,-48
2026-09-13 19:07:57.610,1789337277.6103444,-43
2026-09-13 19:07:57.618,1789337277.6180367,-41
2026-09-13 19:07:57.625,1789337277.625729,-36
2026-09-13 19:07:57.633,1789337277.6334214,-31
2026-09-13 19:07:57.641,1789337277.6411135,-31
2026-09-13 19:07:57.648,1789337277.6488059,-31
2026-09-13 19:07:57.656,1789337277.6564982,-19
2026-09-13 19:07:57.664,1789337277.6641905,-7
2026-09-13 19:07:57.671,1789337277.6718829,-16
2026-09-13 19:07:57.679,1789337277.6795752,-33
2026-09-13 19:07:57.687,1789337277.6872675,-21
2026-09-13 19:07:57.694,1789337277.6949599,4
2026-09-13 19:07:57.702,1789337277.702652,16
2026-09-13 19:07:57.710,1789337277.7103443,24
2026-09-13 19:07:57.718,1789337277.7180367,38
2026-09-13 19:07:57.725,1789337277.725729,43
2026-09-13 19:07:57.733,1789337277.7334213,36
2026-09-13 19:07:57.741,1789337277.7411137,21
2026-09-13 19:07:57.748,1789337277.748806,-2
2026-09-13 19:07:57.756,1789337277.7564983,-21
2026-09-13 19:07:57.764,1789337277.7641907,-16
2026-09-13 19:07:57.771,1789337277.7718828,-9
2026-09-13 19:07:57.779,1789337277.779575,-9
2026-09-13 19:07:57.787,1789337277.7872674,-14
2026-09-13 19:07:57.794,1789337277.7943673,-26
2026-09-13 19:07:57.802,1789337277.8020597,-31
2026-09-13 19:07:57.809,1789337277.809752,-14
2026-09-13 19:07:57.817,1789337277.8174443,70
2026-09-13 19:07:57.825,1789337277.8251367,259
2026-09-13 19:07:57.832,1789337277.8328288,538
2026-09-13 19:07:57.840,1789337277.840521,623
2026-09-13 19:07:57.848,1789337277.8482134,145
2026-09-13 19:07:57.855,1789337277.8559058,-368
2026-09-13 19:07:57.863,1789337277.863598,-237
2026-09-13 19:07:57.871,1789337277.8712904,33
2026-09-13 19:07:57.878,1789337277.8789828,-24
2026-09-13 19:07:57.886,1789337277.8866751,-67
2026-09-13 19:07:57.894,1789337277.8943672,0
2026-09-13 19:07:57.902,1789337277.9020596,-9
2026-09-13 19:07:57.909,1789337277.909752,-31
2026-09-13 19:07:57.917,1789337277.9174442,0
2026-09-13 19:07:57.925,1789337277.9251366,12
2026-09-13 19:07:57.932,1789337277.932829,2
2026-09-13 19:07:57.940,1789337277.9405212,7
2026-09-13 19:07:57.948,1789337277.9482136,24
2026-09-13 19:07:57.955,1789337277.9559057,29
2026-09-13 19:07:57.963,1789337277.963598,29
2026-09-13 19:07:57.971,1789337277.9712903,43
2026-09-13 19:07:57.978,1789337277.9789827,60
2026-09-13 19:07:57.986,1789337277.986675,72
2026-09-13 19:07:57.994,1789337277.9943674,77
2026-09-13 19:07:58.002,1789337278.0020597,87
2026-09-13 19:07:58.009,1789337278.009752,99
2026-09-13 19:07:58.017,1789337278.0174441,101
2026-09-13 19:07:58.025,1789337278.0251365,97
2026-09-13 19:07:58.032,1789337278.0328288,111
2026-09-13 19:07:58.040,1789337278.0405211,123
2026-09-13 19:07:58.048,1789337278.0482135,123
2026-09-13 19:07:58.055,1789337278.0559058,126
2026-09-13 19:07:58.063,1789337278.0635982,126
2026-09-13 19:07:58.071,1789337278.0712905,109
2026-09-13 19:07:58.078,1789337278.0789826,75
2026-09-13 19:07:58.086,1789337278.086675,26
2026-09-13 19:07:58.094,1789337278.0943673,-21
2026-09-13 19:07:58.102,1789337278.1020596,-46
2026-09-13 19:07:58.109,1789337278.109752,-50
2026-09-13 19:07:58.117,1789337278.1174443,-55
2026-09-13 19:07:58.125,1789337278.1251366,-65
2026-09-13 19:07:58.132,1789337278.132829,-70
2026-09-13 19:07:58.140,1789337278.140521,-67
2026-09-13 19:07:58.148,1789337278.1482134,-63
2026-09-13 19:07:58.155,1789337278.1559057,-46
2026-09-13 19:07:58.163,1789337278.163598,-31
2026-09-13 19:07:58.171,1789337278.1712904,-31
2026-09-13 19:07:58.178,1789337278.1789827,-31
2026-09-13 19:07:58.186,1789337278.186675,-21
2026-09-13 19:07:58.194,1789337278.1943674,-21
2026-09-13 19:07:58.202,1789337278.2020595,-31
2026-09-13 19:07:58.209,1789337278.2097518,-31
2026-09-13 19:07:58.217,1789337278.2174442,-29
2026-09-13 19:07:58.225,1789337278.2251365,-29
2026-09-13 19:07:58.232,1789337278.2328289,-24
2026-09-13 19:07:58.240,1789337278.2405212,-16
2026-09-13 19:07:58.248,1789337278.2482135,-7
2026-09-13 19:07:58.255,1789337278.2559059,7
2026-09-13 19:07:58.263,1789337278.263598,26
2026-09-13 19:07:58.271,1789337278.2712903,41
2026-09-13 19:07:58.278,1789337278.2789826,31
2026-09-13 19:07:58.286,1789337278.286675,0
2026-09-13 19:07:58.294,1789337278.2943673,-24
2026-09-13 19:07:58.302,1789337278.3020597,-21
2026-09-13 19:07:58.309,1789337278.309752,-29
2026-09-13 19:07:58.317,1789337278.3174443,-46
2026-09-13 19:07:58.325,1789337278.3251367,-41
2026-09-13 19:07:58.332,1789337278.3328288,-24
2026-09-13 19:07:58.340,1789337278.340521,-19
2026-09-13 19:07:58.348,1789337278.3482134,-38
2026-09-13 19:07:58.355,1789337278.3553443,-38
2026-09-13 19:07:58.363,1789337278.3630366,82
2026-09-13 19:07:58.370,1789337278.370729,344
2026-09-13 19:07:58.378,1789337278.3784213,659
2026-09-13 19:07:58.386,1789337278.3861136,688
2026-09-13 19:07:58.393,1789337278.3938057,106
2026-09-13 19:07:58.401,1789337278.401498,-429
2026-09-13 19:07:58.409,1789337278.4091904,-240
2026-09-13 19:07:58.416,1789337278.4168828,31
2026-09-13 19:07:58.424,1789337278.424575,-60
2026-09-13 19:07:58.432,1789337278.4322674,-80
2026-09-13 19:07:58.439,1789337278.4399598,2
2026-09-13 19:07:58.447,1789337278.447652,-26
2026-09-13 19:07:58.455,1789337278.4553442,-58
2026-09-13 19:07:58.463,1789337278.4630365,-21
2026-09-13 19:07:58.470,1789337278.4707289,-9
2026-09-13 19:07:58.478,1789337278.4784212,-16
2026-09-13 19:07:58.486,1789337278.4861135,-2
2026-09-13 19:07:58.493,1789337278.493806,0
2026-09-13 19:07:58.501,1789337278.5014982,2
2026-09-13 19:07:58.509,1789337278.5091906,24
2026-09-13 19:07:58.516,1789337278.5168827,38
2026-09-13 19:07:58.524,1789337278.524575,48
2026-09-13 19:07:58.532,1789337278.5322673,58
2026-09-13 19:07:58.539,1789337278.5399597,67
2026-09-13 19:07:58.547,1789337278.547652,77
2026-09-13 19:07:58.555,1789337278.5553443,84
2026-09-13 19:07:58.563,1789337278.5630367,99
2026-09-13 19:07:58.570,1789337278.570729,106
2026-09-13 19:07:58.578,1789337278.578421,99
2026-09-13 19:07:58.586,1789337278.5861135,101
2026-09-13 19:07:58.593,1789337278.5938058,113
2026-09-13 19:07:58.601,1789337278.6014981,101
2026-09-13 19:07:58.609,1789337278.6091905,84
2026-09-13 19:07:58.616,1789337278.6168828,80
2026-09-13 19:07:58.624,1789337278.6245751,60
2026-09-13 19:07:58.632,1789337278.6322675,19
2026-09-13 19:07:58.639,1789337278.6399596,-24
2026-09-13 19:07:58.647,1789337278.647652,-55
2026-09-13 19:07:58.655,1789337278.6553442,-72
2026-09-13 19:07:58.663,1789337278.6630366,-77
2026-09-13 19:07:58.670,1789337278.670729,-63
2026-09-13 19:07:58.678,1789337278.6784213,-67
2026-09-13 19:07:58.686,1789337278.6861136,-97
2026-09-13 19:07:58.693,1789337278.693806,-82
2026-09-13 19:07:58.701,1789337278.701498,-46
2026-09-13 19:07:58.709,1789337278.7091904,-41
2026-09-13 19:07:58.716,1789337278.7168827,-38
2026-09-13 19:07:58.724,1789337278.724575,-29
2026-09-13 19:07:58.732,1789337278.7322674,-33
2026-09-13 19:07:58.739,1789337278.7399597,-33
2026-09-13 19:07:58.747,1789337278.747652,-29
2026-09-13 19:07:58.755,1789337278.7553444,-33
2026-09-13 19:07:58.763,1789337278.7630365,-33
2026-09-13 19:07:58.770,1789337278.7707288,-26
2026-09-13 19:07:58.778,1789337278.7784212,-33
2026-09-13 19:07:58.786,1789337278.7861135,-24
2026-09-13 19:07:58.793,1789337278.7938058,4
2026-09-13 19:07:58.801,1789337278.8014982,16
2026-09-13 19:07:58.809,1789337278.8091905,16
2026-09-13 19:07:58.816,1789337278.8168828,14
2026-09-13 19:07:58.824,1789337278.824575,-9
2026-09-13 19:07:58.832,1789337278.8322673,-36
2026-09-13 19:07:58.839,1789337278.8399596,-43
2026-09-13 19:07:58.847,1789337278.847652,-43
2026-09-13 19:07:58.855,1789337278.8553443,-46
2026-09-13 19:07:58.863,1789337278.8630366,-43
2026-09-13 19:07:58.870,1789337278.870729,-38
2026-09-13 19:07:58.878,1789337278.8784213,-46
2026-09-13 19:07:58.886,1789337278.8861136,-63
2026-09-13 19:07:58.893,1789337278.8938057,-60
2026-09-13 19:07:58.901,1789337278.901498,38
2026-09-13 19:07:58.909,1789337278.9091904,286
2026-09-13 19:07:58.916,1789337278.9162905,615
2026-09-13 19:07:58.923,1789337278.9239829,662
2026-09-13 19:07:58.931,1789337278.9316752,80
2026-09-13 19:07:58.939,1789337278.9393675,-448
2026-09-13 19:07:58.947,1789337278.9470599,-244
2026-09-13 19:07:58.954,1789337278.954752,24
2026-09-13 19:07:58.962,1789337278.9624443,-77
2026-09-13 19:07:58.970,1789337278.9701366,-111
2026-09-13 19:07:58.977,1789337278.977829,-33
2026-09-13 19:07:58.985,1789337278.9855213,-53
2026-09-13 19:07:58.993,1789337278.9932137,-77
2026-09-13 19:07:59.000,1789337279.000906,-48
2026-09-13 19:07:59.008,1789337279.0085983,-41
2026-09-13 19:07:59.016,1789337279.0162904,-43
2026-09-13 19:07:59.023,1789337279.0239828,-29
2026-09-13 19:07:59.031,1789337279.031675,-21
2026-09-13 19:07:59.039,1789337279.0393674,-21
2026-09-13 19:07:59.047,1789337279.0470598,-9
2026-09-13 19:07:59.054,1789337279.054752,0
2026-09-13 19:07:59.062,1789337279.0624444,2
2026-09-13 19:07:59.070,1789337279.0701368,9
2026-09-13 19:07:59.077,1789337279.077829,21
2026-09-13 19:07:59.085,1789337279.0855212,33
2026-09-13 19:07:59.093,1789337279.0932136,41
2026-09-13 19:07:59.100,1789337279.100906,41
2026-09-13 19:07:59.108,1789337279.1085982,41
2026-09-13 19:07:59.116,1789337279.1162906,43
2026-09-13 19:07:59.123,1789337279.123983,41
2026-09-13 19:07:59.131,1789337279.1316752,41
2026-09-13 19:07:59.139,1789337279.1393673,41
2026-09-13 19:07:59.147,1789337279.1470597,36
2026-09-13 19:07:59.154,1789337279.154752,19
2026-09-13 19:07:59.162,1789337279.1624444,-9
2026-09-13 19:07:59.170,1789337279.1701367,-41
2026-09-13 19:07:59.177,1789337279.177829,-70
2026-09-13 19:07:59.185,1789337279.1855214,-87
2026-09-13 19:07:59.193,1789337279.1932137,-97
2026-09-13 19:07:59.200,1789337279.2009058,-101
2026-09-13 19:07:59.208,1789337279.2085981,-104
2026-09-13 19:07:59.216,1789337279.2162905,-104
2026-09-13 19:07:59.223,1789337279.2239828,-99
2026-09-13 19:07:59.231,1789337279.2316751,-92
2026-09-13 19:07:59.239,1789337279.2393675,-80
2026-09-13 19:07:59.247,1789337279.2470598,-75
2026-09-13 19:07:59.254,1789337279.2547522,-72
2026-09-13 19:07:59.262,1789337279.2624443,-67
2026-09-13 19:07:59.270,1789337279.2701366,-63
2026-09-13 19:07:59.277,1789337279.277829,-60
2026-09-13 19:07:59.285,1789337279.2855213,-67
2026-09-13 19:07:59.293,1789337279.2932136,-75
2026-09-13 19:07:59.300,1789337279.300906,-75
2026-09-13 19:07:59.308,1789337279.3085983,-70
2026-09-13 19:07:59.316,1789337279.3162906,-63
2026-09-13 19:07:59.323,1789337279.3239827,-53
2026-09-13 19:07:59.331,1789337279.331675,-36
2026-09-13 19:07:59.339,1789337279.3393674,-14
2026-09-13 19:07:59.347,1789337279.3470597,-7
2026-09-13 19:07:59.354,1789337279.354752,-19
2026-09-13 19:07:59.362,1789337279.3624444,-43
2026-09-13 19:07:59.370,1789337279.3701367,-63
2026-09-13 19:07:59.377,1789337279.377829,-70
2026-09-13 19:07:59.385,1789337279.3855212,-75
2026-09-13 19:07:59.393,1789337279.3932135,-75
2026-09-13 19:07:59.400,1789337279.4009058,-72
2026-09-13 19:07:59.408,1789337279.4085982,-67
2026-09-13 19:07:59.416,1789337279.4162905,-72
2026-09-13 19:07:59.423,1789337279.4239829,-87
2026-09-13 19:07:59.431,1789337279.4316752,-84
2026-09-13 19:07:59.439,1789337279.4393675,7
2026-09-13 19:07:59.447,1789337279.4470599,237
2026-09-13 19:07:59.454,1789337279.454752,606
2026-09-13 19:07:59.462,1789337279.4624443,766
2026-09-13 19:07:59.470,1789337279.4701366,240
2026-09-13 19:07:59.477,1789337279.4772367,-383
2026-09-13 19:07:59.484,1789337279.484929,-266
2026-09-13 19:07:59.492,1789337279.4926214,12
2026-09-13 19:07:59.500,1789337279.5003138,-94
2026-09-13 19:07:59.508,1789337279.508006,-157
2026-09-13 19:07:59.515,1789337279.5156982,-72
2026-09-13 19:07:59.523,1789337279.5233905,-82
2026-09-13 19:07:59.531,1789337279.5310829,-111
2026-09-13 19:07:59.538,1789337279.5387752,-77
2026-09-13 19:07:59.546,1789337279.5464675,-65
2026-09-13 19:07:59.554,1789337279.5541599,-75
2026-09-13 19:07:59.561,1789337279.5618522,-60
2026-09-13 19:07:59.569,1789337279.5695446,-48
2026-09-13 19:07:59.577,1789337279.5772367,-50
2026-09-13 19:07:59.584,1789337279.584929,-43
2026-09-13 19:07:59.592,1789337279.5926213,-29
2026-09-13 19:07:59.600,1789337279.6003137,-26
2026-09-13 19:07:59.608,1789337279.608006,-24
2026-09-13 19:07:59.615,1789337279.6156983,-16
2026-09-13 19:07:59.623,1789337279.6233907,-14
2026-09-13 19:07:59.631,1789337279.631083,-12
2026-09-13 19:07:59.638,1789337279.638775,-14
2026-09-13 19:07:59.646,1789337279.6464674,-19
2026-09-13 19:07:59.654,1789337279.6541598,-26
2026-09-13 19:07:59.661,1789337279.6618521,-33
2026-09-13 19:07:59.669,1789337279.6695445,-36
2026-09-13 19:07:59.677,1789337279.6772368,-36
2026-09-13 19:07:59.684,1789337279.6849291,-31
2026-09-13 19:07:59.692,1789337279.6926215,-31
2026-09-13 19:07:59.700,1789337279.7003136,-43
2026-09-13 19:07:59.708,1789337279.708006,-63
2026-09-13 19:07:59.715,1789337279.7156982,-77
2026-09-13 19:07:59.723,1789337279.7233906,-87
2026-09-13 19:07:59.731,1789337279.731083,-92
2026-09-13 19:07:59.738,1789337279.7387753,-94
2026-09-13 19:07:59.746,1789337279.7464676,-97
2026-09-13 19:07:59.754,1789337279.75416,-94
2026-09-13 19:07:59.761,1789337279.761852,-84
2026-09-13 19:07:59.769,1789337279.7695444,-75
2026-09-13 19:07:59.777,1789337279.7772367,-75
2026-09-13 19:07:59.784,1789337279.784929,-70
2026-09-13 19:07:59.792,1789337279.7926214,-65
2026-09-13 19:07:59.800,1789337279.8003137,-65
2026-09-13 19:07:59.808,1789337279.808006,-63
2026-09-13 19:07:59.815,1789337279.8156984,-58
2026-09-13 19:07:59.823,1789337279.8233905,-58
2026-09-13 19:07:59.831,1789337279.8310828,-60
2026-09-13 19:07:59.838,1789337279.8387752,-60
2026-09-13 19:07:59.846,1789337279.8464675,-65
2026-09-13 19:07:59.854,1789337279.8541598,-75
2026-09-13 19:07:59.861,1789337279.8618522,-77
2026-09-13 19:07:59.869,1789337279.8695445,-67
2026-09-13 19:07:59.877,1789337279.8772368,-60
2026-09-13 19:07:59.884,1789337279.884929,-48
2026-09-13 19:07:59.892,1789337279.8926213,-19
2026-09-13 19:07:59.900,1789337279.9003136,2
2026-09-13 19:07:59.908,1789337279.908006,-9
2026-09-13 19:07:59.915,1789337279.9156983,-33
2026-09-13 19:07:59.923,1789337279.9233906,-50
2026-09-13 19:07:59.931,1789337279.931083,-67
2026-09-13 19:07:59.938,1789337279.9387753,-75
2026-09-13 19:07:59.946,1789337279.9464674,-72
2026-09-13 19:07:59.954,1789337279.9541597,-75
2026-09-13 19:07:59.961,1789337279.961852,-75
2026-09-13 19:07:59.969,1789337279.9695444,-70
2026-09-13 19:07:59.977,1789337279.9772367,-77
2026-09-13 19:07:59.984,1789337279.984929,-94
2026-09-13 19:07:59.992,1789337279.9926214,-53
2026-09-13 19:08:00.000,1789337280.0003138,89
2026-09-13 19:08:00.008,1789337280.008006,346
2026-09-13 19:08:00.015,1789337280.0156982,688
2026-09-13 19:08:00.023,1789337280.0233905,637
2026-09-13 19:08:00.031,1789337280.0310829,-33
2026-09-13 19:08:00.038,1789337280.0381932,-417
2026-09-13 19:08:00.045,1789337280.0458856,-140
2026-09-13 19:08:00.053,1789337280.053578,-7
2026-09-13 19:08:00.061,1789337280.0612702,-143
2026-09-13 19:08:00.068,1789337280.0689626,-126
2026-09-13 19:08:00.076,1789337280.0766547,-67
2026-09-13 19:08:00.084,1789337280.084347,-101
2026-09-13 19:08:00.092,1789337280.0920393,-104
2026-09-13 19:08:00.099,1789337280.0997317,-72
2026-09-13 19:08:00.107,1789337280.107424,-72
2026-09-13 19:08:00.115,1789337280.1151164,-72
2026-09-13 19:08:00.122,1789337280.1228087,-58
2026-09-13 19:08:00.130,1789337280.130501,-48
2026-09-13 19:08:00.138,1789337280.1381931,-41
2026-09-13 19:08:00.145,1789337280.1458855,-38
2026-09-13 19:08:00.153,1789337280.1535778,-31
2026-09-13 19:08:00.161,1789337280.1612701,-24
2026-09-13 19:08:00.168,1789337280.1689625,-16
2026-09-13 19:08:00.176,1789337280.1766548,-9
2026-09-13 19:08:00.184,1789337280.1843472,-2
2026-09-13 19:08:00.192,1789337280.1920395,-2
2026-09-13 19:08:00.199,1789337280.1997316,-2
2026-09-13 19:08:00.207,1789337280.207424,-4
2026-09-13 19:08:00.215,1789337280.2151163,-9
2026-09-13 19:08:00.222,1789337280.2228086,-12
2026-09-13 19:08:00.230,1789337280.230501,-12
2026-09-13 19:08:00.238,1789337280.2381933,-12
2026-09-13 19:08:00.245,1789337280.2458856,-9
2026-09-13 19:08:00.253,1789337280.253578,-12
2026-09-13 19:08:00.261,1789337280.26127,-29
2026-09-13 19:08:00.268,1789337280.2689624,-53
2026-09-13 19:08:00.276,1789337280.2766547,-70
2026-09-13 19:08:00.284,1789337280.284347,-82
2026-09-13 19:08:00.292,1789337280.2920394,-87
2026-09-13 19:08:00.299,1789337280.2997317,-87
2026-09-13 19:08:00.307,1789337280.307424,-87
2026-09-13 19:08:00.315,1789337280.3151164,-84
2026-09-13 19:08:00.322,1789337280.3228085,-77
2026-09-13 19:08:00.330,1789337280.3305008,-70
2026-09-13 19:08:00.338,1789337280.3381932,-63
2026-09-13 19:08:00.345,1789337280.3458855,-60
2026-09-13 19:08:00.353,1789337280.3535779,-58
2026-09-13 19:08:00.361,1789337280.3612702,-55
2026-09-13 19:08:00.368,1789337280.3689625,-55
2026-09-13 19:08:00.376,1789337280.3766549,-53
2026-09-13 19:08:00.384,1789337280.384347,-53
2026-09-13 19:08:00.392,1789337280.3920393,-53
2026-09-13 19:08:00.399,1789337280.3997316,-50
2026-09-13 19:08:00.407,1789337280.407424,-50
2026-09-13 19:08:00.415,1789337280.4151163,-50
2026-09-13 19:08:00.422,1789337280.4228086,-53
2026-09-13 19:08:00.430,1789337280.430501,-63
2026-09-13 19:08:00.438,1789337280.4381933,-65
2026-09-13 19:08:00.445,1789337280.4458854,-60
2026-09-13 19:08:00.453,1789337280.4535778,-50
2026-09-13 19:08:00.461,1789337280.46127,-33
2026-09-13 19:08:00.468,1789337280.4689624,-7
2026-09-13 19:08:00.476,1789337280.4766548,12
2026-09-13 19:08:00.484,1789337280.484347,14
2026-09-13 19:08:00.492,1789337280.4920394,0
2026-09-13 19:08:00.499,1789337280.4997318,-16
2026-09-13 19:08:00.507,1789337280.5074239,-38
2026-09-13 19:08:00.515,1789337280.5151162,-53
2026-09-13 19:08:00.522,1789337280.5228086,-53
2026-09-13 19:08:00.530,1789337280.530501,-50
2026-09-13 19:08:00.538,1789337280.5381932,-53
2026-09-13 19:08:00.545,1789337280.5458856,-48
2026-09-13 19:08:00.553,1789337280.553578,-43
2026-09-13 19:08:00.561,1789337280.5612702,-55
2026-09-13 19:08:00.568,1789337280.5689626,-53
2026-09-13 19:08:00.576,1789337280.5766547,31
2026-09-13 19:08:00.584,1789337280.584347,225
2026-09-13 19:08:00.592,1789337280.5920393,531
2026-09-13 19:08:00.599,1789337280.5991597,688
2026-09-13 19:08:00.606,1789337280.606852,247
2026-09-13 19:08:00.614,1789337280.6145444,-315
2026-09-13 19:08:00.622,1789337280.6222367,-237
2026-09-13 19:08:00.629,1789337280.629929,16
2026-09-13 19:08:00.637,1789337280.6376212,-50
2026-09-13 19:08:00.645,1789337280.6453135,-101
2026-09-13 19:08:00.653,1789337280.6530058,-38
2026-09-13 19:08:00.660,1789337280.6606982,-41
2026-09-13 19:08:00.668,1789337280.6683905,-53
2026-09-13 19:08:00.676,1789337280.6760828,-26
2026-09-13 19:08:00.683,1789337280.6837752,-19
2026-09-13 19:08:00.691,1789337280.6914675,-21
2026-09-13 19:08:00.699,1789337280.6991596,-9
2026-09-13 19:08:00.706,1789337280.706852,4
2026-09-13 19:08:00.714,1789337280.7145443,12
2026-09-13 19:08:00.722,1789337280.7222366,19
2026-09-13 19:08:00.729,1789337280.729929,21
2026-09-13 19:08:00.737,1789337280.7376213,31
2026-09-13 19:08:00.745,1789337280.7453136,46
2026-09-13 19:08:00.753,1789337280.753006,55
2026-09-13 19:08:00.760,1789337280.760698,65
2026-09-13 19:08:00.768,1789337280.7683904,75
2026-09-13 19:08:00.776,1789337280.7760828,77
2026-09-13 19:08:00.783,1789337280.783775,80
2026-09-13 19:08:00.791,1789337280.7914674,82
2026-09-13 19:08:00.799,1789337280.7991598,82
2026-09-13 19:08:00.806,1789337280.806852,80
2026-09-13 19:08:00.814,1789337280.8145444,82
2026-09-13 19:08:00.822,1789337280.8222365,80
2026-09-13 19:08:00.829,1789337280.8299289,75
2026-09-13 19:08:00.837,1789337280.8376212,60
2026-09-13 19:08:00.845,1789337280.8453135,19
2026-09-13 19:08:00.853,1789337280.853006,-16
2026-09-13 19:08:00.860,1789337280.8606982,-38
2026-09-13 19:08:00.868,1789337280.8683906,-46
2026-09-13 19:08:00.876,1789337280.876083,-46
2026-09-13 19:08:00.883,1789337280.883775,-53
2026-09-13 19:08:00.891,1789337280.8914673,-58
2026-09-13 19:08:00.899,1789337280.8991597,-48
2026-09-13 19:08:00.906,1789337280.906852,-43
2026-09-13 19:08:00.914,1789337280.9145443,-41
2026-09-13 19:08:00.922,1789337280.9222367,-33
2026-09-13 19:08:00.929,1789337280.929929,-24
2026-09-13 19:08:00.937,1789337280.9376214,-26
2026-09-13 19:08:00.945,1789337280.9453135,-29
2026-09-13 19:08:00.953,1789337280.9530058,-24
2026-09-13 19:08:00.960,1789337280.9606981,-16
2026-09-13 19:08:00.968,1789337280.9683905,-14
2026-09-13 19:08:00.976,1789337280.9760828,-16
2026-09-13 19:08:00.983,1789337280.9837751,-16
2026-09-13 19:08:00.991,1789337280.9914675,-12
2026-09-13 19:08:00.999,1789337280.9991598,-16
2026-09-13 19:08:01.006,1789337281.006852,-24
2026-09-13 19:08:01.014,1789337281.0145442,-31
2026-09-13 19:08:01.022,1789337281.0222366,-31
2026-09-13 19:08:01.029,1789337281.029929,-24
2026-09-13 19:08:01.037,1789337281.0376213,-21
2026-09-13 19:08:01.045,1789337281.0453136,-14
2026-09-13 19:08:01.053,1789337281.053006,12
2026-09-13 19:08:01.060,1789337281.0606983,43
2026-09-13 19:08:01.068,1789337281.0683904,48
2026-09-13 19:08:01.076,1789337281.0760827,26
2026-09-13 19:08:01.083,1789337281.083775,4
2026-09-13 19:08:01.091,1789337281.0914674,-16
2026-09-13 19:08:01.099,1789337281.0991597,-24
2026-09-13 19:08:01.106,1789337281.106852,-19
2026-09-13 19:08:01.114,1789337281.1145444,-19
2026-09-13 19:08:01.122,1789337281.1222367,-29
2026-09-13 19:08:01.129,1789337281.129929,-33
2026-09-13 19:08:01.137,1789337281.1376212,-29
2026-09-13 19:08:01.145,1789337281.1453135,-24
2026-09-13 19:08:01.153,1789337281.1530058,0
2026-09-13 19:08:01.160,1789337281.1601062,116
2026-09-13 19:08:01.167,1789337281.1677985,371
2026-09-13 19:08:01.175,1789337281.1754909,703
2026-09-13 19:08:01.183,1789337281.1831832,725
2026-09-13 19:08:01.190,1789337281.1908755,101
2026-09-13 19:08:01.198,1789337281.1985676,-434
2026-09-13 19:08:01.206,1789337281.20626,-225
2026-09-13 19:08:01.213,1789337281.2139523,24
2026-09-13 19:08:01.221,1789337281.2216446,-70
2026-09-13 19:08:01.229,1789337281.229337,-82
2026-09-13 19:08:01.237,1789337281.2370293,-12
2026-09-13 19:08:01.244,1789337281.2447217,-38
2026-09-13 19:08:01.252,1789337281.252414,-53
2026-09-13 19:08:01.260,1789337281.260106,-14
2026-09-13 19:08:01.267,1789337281.2677984,-12
2026-09-13 19:08:01.275,1789337281.2754908,-21
2026-09-13 19:08:01.283,1789337281.283183,-2
2026-09-13 19:08:01.290,1789337281.2908754,9
